# xPDFsuite Configuration #
#[PDF]
#wavelength = 0.1
#dataformat = QA
#inputfile = Ni_calib_20230517-154530_209905_primary-1_mean_q.chi
#backgroundfile = sum_Epoxy_Blank.dat
#mode = xray
#bgscale = 0.25
#composition = Ni
#outputtype = gr
#qmaxinst = 25.0
#qmin = 0.1
#qmax = 25.0
#rmax = 100.0
#rmin = 0.0
#rstep = 0.01
#rpoly = 0.7

#[Misc]
#inputdir = /Volumes/Data_Internal/2023-2/pass-312134
#savedir = /Volumes/Data_Internal/2023-2/pass-312134
#backgroundfilefull = /Volumes/Data_Internal/2023-2/pass-312134/sum_Epoxy_Blank.dat

#### start data
#S 1
#L r($\AA$)  G($\AA^{-2}$)
0	0
0.01	3.96E-05
0.02	7.67E-05
0.03	0.000108883
0.04	0.000134348
0.05	0.000151572
0.06	0.000159615
0.07	0.00015815
0.08	0.000147483
0.09	0.00012846
0.1	0.000101989
0.11	6.94E-05
0.12	3.13E-05
0.13	-1.32E-05
0.14	-6.74E-05
0.15	-0.000137653
0.16	-0.000234545
0.17	-0.000373416
0.18	-0.00057505
0.19	-0.000866709
0.2	-0.001291937
0.21	-0.001879485
0.22	-0.002667027
0.23	-0.003690717
0.24	-0.0049812
0.25	-0.006558891
0.26	-0.008428566
0.27	-0.010573498
0.28	-0.01294972
0.29	-0.015482079
0.3	-0.01803417
0.31	-0.020435179
0.32	-0.022475884
0.33	-0.023904858
0.34	-0.024432358
0.35	-0.023737834
0.36	-0.021479721
0.37	-0.017308546
0.38	-0.010845218
0.39	-0.001602041
0.4	0.010506322
0.41	0.025657606
0.42	0.043934919
0.43	0.065306836
0.44	0.089612312
0.45	0.116548375
0.46	0.145662914
0.47	0.176357282
0.48	0.207885378
0.49	0.239246023
0.5	0.269430002
0.51	0.297379049
0.52	0.322007854
0.53	0.342248065
0.54	0.3570883
0.55	0.365631165
0.56	0.367131265
0.57	0.360869179
0.58	0.346201469
0.59	0.323652028
0.6	0.293541699
0.61	0.256487429
0.62	0.213396285
0.63	0.165442464
0.64	0.114032297
0.65	0.060752544
0.66	0.007315906
0.67	-0.044275398
0.68	-0.092214113
0.69	-0.134922169
0.7	-0.17098787
0.71	-0.199266962
0.72	-0.218941777
0.73	-0.229574782
0.74	-0.231141614
0.75	-0.224039114
0.76	-0.208896257
0.77	-0.186921353
0.78	-0.160198254
0.79	-0.130633823
0.8	-0.100320136
0.81	-0.07143824
0.82	-0.0461537
0.83	-0.026511137
0.84	-0.014330556
0.85	-0.011110768
0.86	-0.018769069
0.87	-0.037226612
0.88	-0.066363031
0.89	-0.10562175
0.9	-0.153918881
0.91	-0.209680211
0.92	-0.270907604
0.93	-0.335262534
0.94	-0.400173136
0.95	-0.462769128
0.96	-0.520028904
0.97	-0.569609222
0.98	-0.609349828
0.99	-0.637512681
1	-0.652874068
1.01	-0.654794717
1.02	-0.643270891
1.03	-0.618936452
1.04	-0.583056913
1.05	-0.536845817
1.06	-0.483673981
1.07	-0.426354894
1.08	-0.367897463
1.09	-0.311392914
1.1	-0.259856633
1.11	-0.216080003
1.12	-0.182488219
1.13	-0.161015113
1.14	-0.153627729
1.15	-0.160958688
1.16	-0.182222952
1.17	-0.216505272
1.18	-0.262219491
1.19	-0.31718657
1.2	-0.378736653
1.21	-0.443846193
1.22	-0.509287111
1.23	-0.571762949
1.24	-0.627404159
1.25	-0.673738816
1.26	-0.708491047
1.27	-0.729979628
1.28	-0.737217196
1.29	-0.729960401
1.3	-0.708726021
1.31	-0.674773015
1.32	-0.630039523
1.33	-0.576777354
1.34	-0.518473535
1.35	-0.458722596
1.36	-0.400921085
1.37	-0.34837473
1.38	-0.304120123
1.39	-0.270763418
1.4	-0.25034403
1.41	-0.244223379
1.42	-0.253186983
1.43	-0.277886211
1.44	-0.316063056
1.45	-0.36587408
1.46	-0.424859477
1.47	-0.490075247
1.48	-0.558251439
1.49	-0.625966453
1.5	-0.689832392
1.51	-0.746675431
1.52	-0.792988695
1.53	-0.826698954
1.54	-0.846666738
1.55	-0.852234486
1.56	-0.843545308
1.57	-0.821525062
1.58	-0.787837363
1.59	-0.744784462
1.6	-0.695183054
1.61	-0.642205987
1.62	-0.589536683
1.63	-0.540672547
1.64	-0.498661303
1.65	-0.466131009
1.66	-0.445137618
1.67	-0.437049605
1.68	-0.442464658
1.69	-0.461181485
1.7	-0.492202703
1.71	-0.534336308
1.72	-0.584415875
1.73	-0.639268581
1.74	-0.695641994
1.75	-0.750185007
1.76	-0.799647369
1.77	-0.841070239
1.78	-0.871963735
1.79	-0.890466467
1.8	-0.895084871
1.81	-0.885125543
1.82	-0.862150732
1.83	-0.827716861
1.84	-0.784112785
1.85	-0.734233529
1.86	-0.681417886
1.87	-0.629248861
1.88	-0.581350075
1.89	-0.541161045
1.9	-0.512713698
1.91	-0.497903477
1.92	-0.498102355
1.93	-0.513922952
1.94	-0.545025749
1.95	-0.590107886
1.96	-0.646963197
1.97	-0.712583402
1.98	-0.783318532
1.99	-0.854958097
2	-0.922662731
2.01	-0.982213637
2.02	-1.029788861
2.03	-1.062187197
2.04	-1.077042094
2.05	-1.072986434
2.06	-1.049787227
2.07	-1.008416094
2.08	-0.95099729
2.09	-0.880087075
2.1	-0.80131533
2.11	-0.719812769
2.12	-0.641042231
2.13	-0.570549728
2.14	-0.513624069
2.15	-0.474952371
2.16	-0.45828756
2.17	-0.466150924
2.18	-0.500620264
2.19	-0.560845045
2.2	-0.642835892
2.21	-0.74197204
2.22	-0.851935447
2.23	-0.964899295
2.24	-1.071799908
2.25	-1.162689099
2.26	-1.227153912
2.27	-1.254662116
2.28	-1.230580461
2.29	-1.149496939
2.3	-1.004307507
2.31	-0.789849236
2.32	-0.503302664
2.33	-0.144423414
2.34	0.284294463
2.35	0.777573684
2.36	1.32741947
2.37	1.924908034
2.38	2.555045059
2.39	3.201209301
2.4	3.847229024
2.41	4.476296367
2.42	5.071540208
2.43	5.616629338
2.44	6.096375795
2.45	6.497298138
2.46	6.807159275
2.47	7.009979228
2.48	7.10782533
2.49	7.098742645
2.5	6.983983878
2.51	6.767899475
2.52	6.457737172
2.53	6.063361041
2.54	5.596799464
2.55	5.071833231
2.56	4.5018734
2.57	3.905293043
2.58	3.298909238
2.59	2.697650725
2.6	2.115271859
2.61	1.564000186
2.62	1.054123554
2.63	0.593760239
2.64	0.188714539
2.65	-0.15659286
2.66	-0.438007068
2.67	-0.661267011
2.68	-0.829839923
2.69	-0.948782025
2.7	-1.024371504
2.71	-1.063742388
2.72	-1.074465975
2.73	-1.064189522
2.74	-1.040269789
2.75	-1.00942058
2.76	-0.978259352
2.77	-0.951521839
2.78	-0.932617471
2.79	-0.923732772
2.8	-0.925871344
2.81	-0.938944217
2.82	-0.961921662
2.83	-0.993015271
2.84	-1.029966859
2.85	-1.06994257
2.86	-1.109882303
2.87	-1.147196827
2.88	-1.179679241
2.89	-1.20555544
2.9	-1.223645458
2.91	-1.233403921
2.92	-1.234879906
2.93	-1.228717098
2.94	-1.215730645
2.95	-1.198015912
2.96	-1.177507429
2.97	-1.1561603
2.98	-1.135839316
2.99	-1.118218131
3	-1.104698548
3.01	-1.09624914
3.02	-1.093405125
3.03	-1.096389258
3.04	-1.10485964
3.05	-1.117586859
3.06	-1.133381576
3.07	-1.150822219
3.08	-1.168396129
3.09	-1.18462057
3.1	-1.198163783
3.11	-1.207925736
3.12	-1.213169328
3.13	-1.213147204
3.14	-1.208342775
3.15	-1.199390909
3.16	-1.187219253
3.17	-1.173078586
3.18	-1.158401626
3.19	-1.144681977
3.2	-1.133373217
3.21	-1.125707196
3.22	-1.122815113
3.23	-1.125222737
3.24	-1.132547368
3.25	-1.144022569
3.26	-1.158306213
3.27	-1.173480315
3.28	-1.187111441
3.29	-1.196381837
3.3	-1.198210497
3.31	-1.189424774
3.32	-1.165477607
3.33	-1.124588484
3.34	-1.064542083
3.35	-0.983776134
3.36	-0.881525079
3.37	-0.757942559
3.38	-0.614151203
3.39	-0.452254045
3.4	-0.275303495
3.41	-0.086922267
3.42	0.107560473
3.43	0.302417442
3.44	0.492061852
3.45	0.670841228
3.46	0.833281619
3.47	0.974325214
3.48	1.089545818
3.49	1.175355299
3.5	1.228919927
3.51	1.246229168
3.52	1.229824565
3.53	1.180791927
3.54	1.101319748
3.55	0.994581219
3.56	0.864596979
3.57	0.71601183
3.58	0.553892608
3.59	0.38348855
3.6	0.21009881
3.61	0.039162243
3.62	-0.124972558
3.63	-0.27874805
3.64	-0.41944152
3.65	-0.54523569
3.66	-0.655249079
3.67	-0.749503919
3.68	-0.82885356
3.69	-0.894709404
3.7	-0.948786956
3.71	-0.994603484
3.72	-1.034860013
3.73	-1.072186388
3.74	-1.10898124
3.75	-1.147219476
3.76	-1.188370096
3.77	-1.233264342
3.78	-1.282065087
3.79	-1.334408443
3.8	-1.388866606
3.81	-1.44362635
3.82	-1.496590225
3.83	-1.545487928
3.84	-1.587997849
3.85	-1.622000431
3.86	-1.645710001
3.87	-1.657837071
3.88	-1.657446582
3.89	-1.644130379
3.9	-1.619660001
3.91	-1.585716218
3.92	-1.544629239
3.93	-1.499277529
3.94	-1.452854757
3.95	-1.408727921
3.96	-1.370183837
3.97	-1.340205956
3.98	-1.322093073
3.99	-1.316953571
4	-1.325013471
4.01	-1.345555225
4.02	-1.376653546
4.03	-1.415114075
4.04	-1.456554105
4.05	-1.495513788
4.06	-1.525607984
4.07	-1.539099566
4.08	-1.527101948
4.09	-1.483152381
4.1	-1.400268348
4.11	-1.27216586
4.12	-1.093706519
4.13	-0.861148784
4.14	-0.572429816
4.15	-0.227383467
4.16	0.172131018
4.17	0.625563357
4.18	1.122798989
4.19	1.654947707
4.2	2.211980641
4.21	2.782492023
4.22	3.354025877
4.23	3.913471974
4.24	4.447533105
4.25	4.943151918
4.26	5.385650657
4.27	5.76174997
4.28	6.064744577
4.29	6.287123769
4.3	6.423550561
4.31	6.470964229
4.32	6.42872357
4.33	6.298536651
4.34	6.084400697
4.35	5.792440227
4.36	5.425607419
4.37	5.000000724
4.38	4.526859836
4.39	4.017916407
4.4	3.485241616
4.41	2.940859569
4.42	2.396380872
4.43	1.862646215
4.44	1.349441034
4.45	0.866859356
4.46	0.422520242
4.47	0.020147847
4.48	-0.336888844
4.49	-0.646856321
4.5	-0.909573691
4.51	-1.126279362
4.52	-1.299465071
4.53	-1.432642083
4.54	-1.530069586
4.55	-1.59468352
4.56	-1.634719623
4.57	-1.655542467
4.58	-1.662345119
4.59	-1.659985993
4.6	-1.652856204
4.61	-1.64470608
4.62	-1.638573531
4.63	-1.636773567
4.64	-1.641122327
4.65	-1.652253623
4.66	-1.669771428
4.67	-1.692810409
4.68	-1.719943927
4.69	-1.749183797
4.7	-1.778184091
4.71	-1.804271585
4.72	-1.824588474
4.73	-1.836041264
4.74	-1.83470874
4.75	-1.818536112
4.76	-1.785018746
4.77	-1.732008417
4.78	-1.657784917
4.79	-1.561127715
4.8	-1.44137743
4.81	-1.298507557
4.82	-1.133145168
4.83	-0.945497754
4.84	-0.73853484
4.85	-0.515713221
4.86	-0.280544012
4.87	-0.037128875
4.88	0.209918397
4.89	0.455571785
4.9	0.694516523
4.91	0.921289996
4.92	1.129995264
4.93	1.313714078
4.94	1.468870822
4.95	1.59120456
4.96	1.677158347
4.97	1.724043151
4.98	1.730160971
4.99	1.694876873
5	1.618701301
5.01	1.503290594
5.02	1.349258104
5.03	1.16257883
5.04	0.948939301
5.05	0.714024
5.06	0.46404552
5.07	0.205533971
5.08	-0.054898515
5.09	-0.310809569
5.1	-0.556164188
5.11	-0.785013393
5.12	-0.99171033
5.13	-1.173962083
5.14	-1.329609029
5.15	-1.457690188
5.16	-1.558443776
5.17	-1.633255516
5.18	-1.684566958
5.19	-1.715650551
5.2	-1.730466562
5.21	-1.732843495
5.22	-1.728384511
5.23	-1.721587789
5.24	-1.716276589
5.25	-1.715598935
5.26	-1.721760709
5.27	-1.735881632
5.28	-1.757851178
5.29	-1.786327979
5.3	-1.818739239
5.31	-1.850787724
5.32	-1.877353775
5.33	-1.892802724
5.34	-1.891035947
5.35	-1.865798504
5.36	-1.811058813
5.37	-1.721306418
5.38	-1.591880732
5.39	-1.419289711
5.4	-1.197750222
5.41	-0.930422862
5.42	-0.619304836
5.43	-0.267916204
5.44	0.11843745
5.45	0.532788421
5.46	0.966706396
5.47	1.410563828
5.48	1.853834358
5.49	2.284542538
5.5	2.690135683
5.51	3.060502437
5.52	3.385702139
5.53	3.656982689
5.54	3.867048458
5.55	4.010359209
5.56	4.083316082
5.57	4.084375693
5.58	4.014010024
5.59	3.869399314
5.6	3.661590959
5.61	3.397171273
5.62	3.084087494
5.63	2.731370619
5.64	2.348713993
5.65	1.946175152
5.66	1.533743663
5.67	1.121021944
5.68	0.717734764
5.69	0.332450357
5.7	-0.028804599
5.71	-0.361013174
5.72	-0.66061678
5.73	-0.925509737
5.74	-1.15497769
5.75	-1.349585707
5.76	-1.510969752
5.77	-1.641459007
5.78	-1.7426724
5.79	-1.820662073
5.8	-1.879204305
5.81	-1.921942906
5.82	-1.952244789
5.83	-1.972952326
5.84	-1.986372766
5.85	-1.994133547
5.86	-1.997171622
5.87	-1.995557708
5.88	-1.989011734
5.89	-1.976851053
5.9	-1.957928308
5.91	-1.930971789
5.92	-1.894698909
5.93	-1.847991705
5.94	-1.790031136
5.95	-1.720410835
5.96	-1.639044383
5.97	-1.546103515
5.98	-1.44376389
5.99	-1.333881863
6	-1.218820824
6.01	-1.101306823
6.02	-0.984327505
6.03	-0.871006167
6.04	-0.764461271
6.05	-0.667666898
6.06	-0.584271455
6.07	-0.516261365
6.08	-0.465069685
6.09	-0.431889162
6.1	-0.417346304
6.11	-0.421511408
6.12	-0.443927226
6.13	-0.483674884
6.14	-0.539448129
6.15	-0.609939105
6.16	-0.693654133
6.17	-0.787782256
6.18	-0.890420177
6.19	-0.99974037
6.2	-1.114029428
6.21	-1.231709875
6.22	-1.351332985
6.23	-1.47156332
6.24	-1.591075196
6.25	-1.708293692
6.26	-1.821715695
6.27	-1.929619801
6.28	-2.029952178
6.29	-2.120233095
6.3	-2.197546311
6.31	-2.258476613
6.32	-2.299151007
6.33	-2.315269549
6.34	-2.301119879
6.35	-2.250499501
6.36	-2.160231997
6.37	-2.025728535
6.38	-1.842813143
6.39	-1.608065378
6.4	-1.318976423
6.41	-0.974200786
6.42	-0.573806103
6.43	-0.119391266
6.44	0.389343153
6.45	0.943174648
6.46	1.534529781
6.47	2.154634055
6.48	2.793228652
6.49	3.438819922
6.5	4.078911373
6.51	4.700377151
6.52	5.289846172
6.53	5.831820681
6.54	6.311679125
6.55	6.720292581
6.56	7.04771672
6.57	7.285790992
6.58	7.428462064
6.59	7.471961887
6.6	7.414965085
6.61	7.258632027
6.62	7.006589502
6.63	6.657856011
6.64	6.229058838
6.65	5.73070247
6.66	5.17467049
6.67	4.573882858
6.68	3.941911297
6.69	3.292583989
6.7	2.639506665
6.71	1.995677091
6.72	1.374599394
6.73	0.787964134
6.74	0.243580921
6.75	-0.251586115
6.76	-0.69247569
6.77	-1.075951357
6.78	-1.40075369
6.79	-1.667394033
6.8	-1.877988751
6.81	-2.035729378
6.82	-2.142119264
6.83	-2.206997277
6.84	-2.236430407
6.85	-2.236697299
6.86	-2.214017066
6.87	-2.174277911
6.88	-2.122911674
6.89	-2.064684768
6.9	-2.003603808
6.91	-1.943040449
6.92	-1.885511682
6.93	-1.832459973
6.94	-1.784639084
6.95	-1.74224946
6.96	-1.705042365
6.97	-1.672497248
6.98	-1.643926082
6.99	-1.618619588
7	-1.596024943
7.01	-1.575871332
7.02	-1.557929633
7.03	-1.54248304
7.04	-1.530118211
7.05	-1.521714994
7.06	-1.518373394
7.07	-1.521340462
7.08	-1.53187436
7.09	-1.551171107
7.1	-1.58081463
7.11	-1.621143925
7.12	-1.671974682
7.13	-1.732850254
7.14	-1.802716831
7.15	-1.879849736
7.16	-1.961873941
7.17	-2.045795067
7.18	-2.128061851
7.19	-2.204440024
7.2	-2.26961359
7.21	-2.319395841
7.22	-2.349147078
7.23	-2.35442437
7.24	-2.331065567
7.25	-2.275472636
7.26	-2.184633011
7.27	-2.056382224
7.28	-1.88944643
7.29	-1.680956121
7.3	-1.433833202
7.31	-1.150938108
7.32	-0.835464467
7.33	-0.491604944
7.34	-0.124500454
7.35	0.259883112
7.36	0.654892969
7.37	1.053347586
7.38	1.44733566
7.39	1.827969753
7.4	2.187899258
7.41	2.519727567
7.42	2.816516577
7.43	3.071944677
7.44	3.280506914
7.45	3.437578636
7.46	3.539626412
7.47	3.584240315
7.48	3.565758437
7.49	3.488216335
7.5	3.353862841
7.51	3.165505732
7.52	2.927122593
7.53	2.643766876
7.54	2.321484416
7.55	1.96712458
7.56	1.588267104
7.57	1.192695971
7.58	0.789671041
7.59	0.388507815
7.6	-0.002374837
7.61	-0.374870446
7.62	-0.721369488
7.63	-1.034942188
7.64	-1.309491797
7.65	-1.539930415
7.66	-1.722217645
7.67	-1.849193026
7.68	-1.92340747
7.69	-1.945071107
7.7	-1.915470406
7.71	-1.837116672
7.72	-1.713662462
7.73	-1.549817947
7.74	-1.351193287
7.75	-1.124162006
7.76	-0.875095898
7.77	-0.612242964
7.78	-0.344074496
7.79	-0.078110419
7.8	0.178364963
7.81	0.418483828
7.82	0.635963177
7.83	0.825245834
7.84	0.981623589
7.85	1.101209243
7.86	1.177922107
7.87	1.213448928
7.88	1.207423025
7.89	1.16048257
7.9	1.074313635
7.91	0.951492196
7.92	0.795439262
7.93	0.610308209
7.94	0.400859328
7.95	0.171670308
7.96	-0.070732294
7.97	-0.319833851
7.98	-0.569740803
7.99	-0.814631199
8	-1.048879255
8.01	-1.26715903
8.02	-1.464553817
8.03	-1.636636998
8.04	-1.779209444
8.05	-1.886712173
8.06	-1.959076872
8.07	-1.994728872
8.08	-1.992909455
8.09	-1.953634003
8.1	-1.877756244
8.11	-1.766958248
8.12	-1.623697962
8.13	-1.451220403
8.14	-1.252294636
8.15	-1.032804077
8.16	-0.798784299
8.17	-0.555976975
8.18	-0.310468222
8.19	-0.068543495
8.2	0.163448289
8.21	0.379254143
8.22	0.572873342
8.23	0.738123794
8.24	0.867916842
8.25	0.960161619
8.26	1.011716054
8.27	1.020479852
8.28	0.985493159
8.29	0.907007657
8.3	0.78652153
8.31	0.626778277
8.32	0.43172719
8.33	0.204874793
8.34	-0.045659167
8.35	-0.312137155
8.36	-0.586854683
8.37	-0.861723716
8.38	-1.128514271
8.39	-1.379124595
8.4	-1.605815764
8.41	-1.80147636
8.42	-1.958798666
8.43	-2.070726433
8.44	-2.136044278
8.45	-2.152703927
8.46	-2.120160231
8.47	-2.039468372
8.48	-1.913263733
8.49	-1.74566705
8.5	-1.542189468
8.51	-1.309541418
8.52	-1.054521808
8.53	-0.787644376
8.54	-0.518177308
8.55	-0.255169074
8.56	-0.007442952
8.57	0.21670464
8.58	0.409795075
8.59	0.56543243
8.6	0.67852876
8.61	0.743900938
8.62	0.758575597
8.63	0.725245185
8.64	0.645837703
8.65	0.523993433
8.66	0.364968889
8.67	0.17548823
8.68	-0.036449578
8.69	-0.261811747
8.7	-0.490796439
8.71	-0.711743876
8.72	-0.91389881
8.73	-1.087132421
8.74	-1.221816347
8.75	-1.309169252
8.76	-1.341525484
8.77	-1.312597545
8.78	-1.217638027
8.79	-1.053664972
8.8	-0.816716199
8.81	-0.507460486
8.82	-0.13230538
8.83	0.303749833
8.84	0.793925273
8.85	1.329808243
8.86	1.901567724
8.87	2.498123968
8.88	3.107492239
8.89	3.716960392
8.9	4.311251072
8.91	4.877505559
8.92	5.40309325
8.93	5.876031036
8.94	6.285370834
8.95	6.6213832
8.96	6.875902435
8.97	7.042467666
8.98	7.116517863
8.99	7.090938945
9	6.966381723
9.01	6.748728148
9.02	6.442206154
9.03	6.052962793
9.04	5.588947356
9.05	5.059675928
9.06	4.475984925
9.07	3.849719765
9.08	3.193315475
9.09	2.519678642
9.1	1.843869335
9.11	1.178316276
9.12	0.534629385
9.13	-0.076626815
9.14	-0.646262473
9.15	-1.166668506
9.16	-1.631990524
9.17	-2.038265713
9.18	-2.380014289
9.19	-2.658791087
9.2	-2.878613586
9.21	-3.043188724
9.22	-3.157640713
9.23	-3.228274574
9.24	-3.26223141
9.25	-3.267208164
9.26	-3.251101443
9.27	-3.221564513
9.28	-3.186190896
9.29	-3.152125065
9.3	-3.124580433
9.31	-3.107432664
9.32	-3.103121174
9.33	-3.112561373
9.34	-3.135143368
9.35	-3.168752334
9.36	-3.209929613
9.37	-3.253817441
9.38	-3.294049457
9.39	-3.324179152
9.4	-3.337517294
9.41	-3.32742426
9.42	-3.287602661
9.43	-3.212444465
9.44	-3.097302596
9.45	-2.938708589
9.46	-2.733581966
9.47	-2.479675251
9.48	-2.181454318
9.49	-1.84208608
9.5	-1.466356502
9.51	-1.060462526
9.52	-0.631890626
9.53	-0.189157352
9.54	0.258466676
9.55	0.701252619
9.56	1.12760298
9.57	1.527822272
9.58	1.893189535
9.59	2.215578766
9.6	2.487988816
9.61	2.704750938
9.62	2.861682176
9.63	2.956238917
9.64	2.987474805
9.65	2.954301325
9.66	2.857849062
9.67	2.705746991
9.68	2.503332485
9.69	2.256991828
9.7	1.973954244
9.71	1.662009468
9.72	1.329268593
9.73	0.98393012
9.74	0.633982548
9.75	0.287815646
9.76	-0.047339456
9.77	-0.36551867
9.78	-0.661673838
9.79	-0.931795684
9.8	-1.172961099
9.81	-1.383365406
9.82	-1.562252423
9.83	-1.709943769
9.84	-1.826586597
9.85	-1.914260722
9.86	-1.977318875
9.87	-2.019144778
9.88	-2.043495981
9.89	-2.054263822
9.9	-2.055407984
9.91	-2.050716098
9.92	-2.043694265
9.93	-2.037424672
9.94	-2.034904234
9.95	-2.037775694
9.96	-2.047070339
9.97	-2.063032374
9.98	-2.085118216
9.99	-2.112017669
10	-2.141697024
10.01	-2.171431252
10.02	-2.197934795
10.03	-2.216966713
10.04	-2.223998123
10.05	-2.215143359
10.06	-2.186261834
10.07	-2.133483977
10.08	-2.053364965
10.09	-1.943104434
10.1	-1.800667702
10.11	-1.624983931
10.12	-1.415870199
10.13	-1.172221606
10.14	-0.89940497
10.15	-0.601244221
10.16	-0.282750822
10.17	0.050003726
10.18	0.390028048
10.19	0.729602293
10.2	1.06050601
10.21	1.374290772
10.22	1.660749732
10.23	1.911528692
10.24	2.12034004
10.25	2.281067434
10.26	2.388843997
10.27	2.440339528
10.28	2.433926995
10.29	2.369783175
10.3	2.249967393
10.31	2.077773653
10.32	1.856674576
10.33	1.598009872
10.34	1.310538747
10.35	1.004003215
10.36	0.688691499
10.37	0.375102357
10.38	0.073515755
10.39	-0.206416425
10.4	-0.456053686
10.41	-0.665513044
10.42	-0.830124595
10.43	-0.947672477
10.44	-1.016966709
10.45	-1.03892053
10.46	-1.016485029
10.47	-0.954501992
10.48	-0.859462687
10.49	-0.739180205
10.5	-0.602283527
10.51	-0.458650451
10.52	-0.318535506
10.53	-0.190615537
10.54	-0.082567911
10.55	-0.000655329
10.56	0.050612178
10.57	0.068742209
10.58	0.053428313
10.59	0.00661413
10.6	-0.068972189
10.61	-0.164982685
10.62	-0.272580019
10.63	-0.382140775
10.64	-0.483189073
10.65	-0.564900738
10.66	-0.616646069
10.67	-0.628540996
10.68	-0.591966721
10.69	-0.498389789
10.7	-0.340971705
10.71	-0.121446015
10.72	0.159067214
10.73	0.496646789
10.74	0.884645376
10.75	1.313881151
10.76	1.772942945
10.77	2.248634592
10.78	2.726434227
10.79	3.18894173
10.8	3.620432738
10.81	4.006515657
10.82	4.333921686
10.83	4.591239873
10.84	4.769386087
10.85	4.861994668
10.86	4.865665887
10.87	4.780124675
10.88	4.605396224
10.89	4.346905638
10.9	4.018233888
10.91	3.630678106
10.92	3.197282225
10.93	2.732259303
10.94	2.250357433
10.95	1.766247204
10.96	1.293975319
10.97	0.846304943
10.98	0.437976934
10.99	0.075432881
11	-0.235605523
11.01	-0.491868183
11.02	-0.692717645
11.03	-0.840037832
11.04	-0.937997816
11.05	-0.992719021
11.06	-1.011853779
11.07	-1.003363335
