PrSrMnO     6.00    0.05    0.05
BANK 1 2415 242 CONST 600 5 0 0
 3    29 3    24 3    27 3    21 3    22 3    32 3    29 3    24 3    22 3    25
 3    24 3    25 3    27 3    24 3    23 3    27 3    25 3    28 3    24 3    25
 3    23 3    27 3    25 3    27 3    20 3    24 3    26 3    23 3    21 3    19
 3    25 3    18 3    26 3    27 3    22 3    19 3    22 3    26 3    22 3    19
 3    18 3    23 3    26 3    26 3    22 3    23 3    25 3    22 3    29 3    33
 3    38 3    35 3    33 3    43 3    51 3    58 3    60 3    64 3    77 3    79
 4   104 4   105 4   142 4   168 4   205 4   271 4   300 4   355 4   352 4   313
 4   220 4   152 4    91 4    56 4    39 4    31 4    21 4    30 4    25 4    25
 4    21 4    21 4    26 4    20 4    22 4    21 4    22 4    20 4    20 4    21
 4    24 4    19 4    19 4    19 4    18 4    21 4    22 4    18 4    22 4    17
 4    18 4    19 4    22 4    18 4    18 4    17 4    21 4    19 4    17 4    15
 4    23 4    21 4    16 4    23 4    18 4    19 4    15 4    21 4    15 4    20
 4    22 5    19 5    16 5    21 5    19 5    18 5    15 5    24 5    21 5    20
 5    20 5    20 5    18 5    20 5    21 5    17 5    17 5    18 5    20 5    18
 5    17 5    18 5    21 5    21 5    17 5    17 5    22 5    20 5    21 5    16
 5    18 5    18 5    17 5    16 5    20 5    17 5    16 5    15 5    14 5    18
 5    14 5    18 5    21 5    19 5    17 5    22 5    22 5    20 5    17 5    17
 5    19 5    15 5    18 5    18 5    18 5    19 5    15 5    17 5    17 5    17
 5    17 6    17 6    16 6    16 6    19 6    17 6    14 6    18 6    16 6    17
 6    17 6    19 6    18 6    15 6    16 6    17 6    18 6    18 6    15 6    19
 6    20 6    17 6    15 6    15 6    14 6    15 6    17 6    16 6    16 6    19
 6    15 6    18 6    16 6    17 6    18 6    17 6    17 6    15 6    16 6    17
 6    15 6    19 6    16 6    19 6    15 6    16 6    18 6    16 6    22 6    14
 6    19 6    15 6    21 6    19 6    22 6    21 6    25 6    27 6    29 6    35
 6    41 7    43 7    44 7    38 7    38 7    42 7    43 7    49 7    50 7    43
 7    43 7    37 7    33 7    32 7    34 7    40 7    49 7    42 7    38 7    35
 7    25 7    20 7    18 7    16 7    19 7    18 7    17 7    15 7    15 7    16
 7    18 7    19 7    18 7    15 7    18 7    19 7    19 7    16 7    19 7    21
 7    18 7    22 7    23 7    27 7    32 7    40 7    53 7    63 7    63 7    73
 7    88 7   106 7   127 7   139 7   146 7   123 7    95 7    58 7    39 7    26
 7    20 8    20 8    18 8    20 8    17 8    18 8    19 8    16 8    19 8    17
 8    18 8    16 8    17 8    15 8    15 8    16 8    17 8    20 8    17 8    17
 8    17 8    15 8    17 8    16 8    16 8    18 8    17 8    15 8    15 8    18
 8    17 8    16 8    20 8    18 8    16 8    18 8    18 8    17 8    15 8    17
 8    15 8    17 8    17 8    17 8    17 8    15 8    14 8    16 8    14 8    16
 8    17 8    14 8    18 8    17 8    18 8    18 8    16 8    14 8    13 8    15
 8    15 8    15 9    14 9    16 9    16 9    15 9    18 9    16 9    14 9    14
 9    14 9    16 9    16 9    17 9    18 9    13 9    16 9    15 9    16 9    17
 9    16 9    14 9    17 9    17 9    17 9    16 9    17 9    16 9    16 9    20
 9    18 9    18 9    22 9    24 9    30 9    42 9    50 9    57 9    61 9    53
 9    47 9    45 9    50 9    57 9    54 9    54 9    40 9    37 9    34 9    31
 9    30 9    25 9    19 9    19 9    17 9    14 9    16 9    17 9    17 9    15
 9    16 9    1910    1710    1710    1910    2210    2510    2810    3810    52
10    6910    8610    8310    7010    4910    3110    2310    2010    1910    18
10    1710    1910    2010    2210    2710    3010    3810    4510    4310    44
10    3910    3010    2210    2210    1910    2110    1710    2010    2310    21
10    2210    1910    1910    1610    1710    1610    1710    1710    1710    18
10    1710    1510    1610    1810    1810    1510    1610    1810    1710    17
10    1710    1711    2011    1911    1711    1711    1911    2111    1711    22
11    2611    3411    4911    7011    8511    9111    8211    6611    4211    31
11    2911    2911    3911    5411    6811    8711    8311    7011    5811    37
11    2811    2811    2811    2711    2811    3011    3811    6311   11911   222
11   42511   78111  126111  164511  168411  145411   95511   46311   17311    66
11    4411    3611    3011    2911    2411    2511    2411    2311    2111    22
11    2111    2112    2012    1912    2012    2012    2012    1912    1812    17
12    1812    1912    2012    2112    2912    3312    4112    4912    5012    54
12    5612    5512    4812    3712    2712    2112    1612    1512    1612    17
12    1712    1812    1512    1612    1912    1612    1412    1812    1412    16
12    1612    1812    1612    1712    1512    1712    1512    1612    1512    16
12    1512    1512    1812    1612    1512    1612    1612    1712    1712    18
12    1512    1613    1813    1713    1913    2513    2913    4913    9013   151
13   19613   19813   17513   12413    6913    3713    2513    2413    2313    22
13    2913    3513    5913    8813   12913   14913   14713   12113    7213    46
13    2813    2113    2113    2113    2113    2113    2313    2313    2813    37
13    4913    8413   12113   14913   14113   12113    8013    4813    3913    37
13    3913    4213    3713    3813    4213    4913    4713    4113    3113    23
13    2013    1814    1714    1414    1614    1814    1514    1814    1514    15
14    1614    1714    1614    1514    1514    1614    1514    1614    1714    17
14    1514    1714    1814    1714    2114    2514    3414    5214    5914    59
14    5414    3914    2914    2714    3014    4214    5414    5814    5214    42
14    3214    2714    2914    3414    3714    3814    3614    3714    3714    36
14    3314    3514    3914    4614    4714    4314    3614    2714    2014    21
14    2414    2515    2315    2315    2115    2415    2615    3015    3815    47
15    4715    4715    4115    3715    3415    3615    3915    3915    3515    28
15    2115    1815    1715    1615    1415    1615    1515    1715    1615    15
15    1615    1515    1515    1515    1615    1615    1615    1615    1615    15
15    1515    1415    1615    1515    1415    1415    1515    1515    1415    14
15    1715    1415    1615    1515    1315    1515    1615    1515    1415    16
15    1715    1615    1416    1816    1616    1516    1516    1616    1516    17
16    1816    2116    2516    2116    2216    2116    1916    1816    1716    16
16    1816    1916    2016    1916    1816    1716    1616    1816    1416    17
16    1716    1716    2016    2116    2116    2016    1916    2016    2016    20
16    1616    1616    1616    1616    1616    1616    1516    2116    2016    22
16    2416    2216    1916    1816    1516    1316    1716    1616    1616    16
16    1716    1417    1517    1717    1717    1817    1817    1817    1717    17
17    1517    1717    1417    1717    1617    1517    1617    1617    2317    28
17    3017    3317    3317    2617    1917    1717    1617    1717    1517    15
17    1317    1617    1517    1817    1517    1517    1517    1517    1617    19
17    2017    2717    2917    3117    2817    2317    2017    1717    1517    16
17    1617    1717    1617    1617    1917    2117    1917    2017    1817    16
17    2017    1818    2318    2318    2218    2818    2218    1618    1718    17
18    1618    1618    1418    1618    1618    1718    1718    1818    2018    20
18    2218    2318    2118    1918    1618    1518    1418    1618    1418    16
18    1618    1518    1818    1618    1618    1818    1818    1918    2218    29
18    5118    8118   12718   15618   15018   12218    8118    4418    3118    26
18    2518    2518    2618    3218    5618    9718   13518   15918   15118   117
18    7318    4218    3419    3119    3319    4919    8319   11519   12119   110
19    8319    4519    2619    1819    1819    1619    1719    1819    1519    17
19    1619    1719    1619    1419    1719    1719    1619    1719    2119    27
19    3619    4019    4419    3819    3319    3019    2919    3819    4219    42
19    4719    4319    4119    3619    2919    2519    2219    1719    2019    19
19    2419    3219    4819    7219    9119    9319    8419    6219    4119    33
19    3219    3419    4020    4720    5720    7220    9320   10720   10320    92
20    6720    3920    3320    4420    6820    8420    8620    7620    5320    34
20    2320    1920    1820    1820    1620    1720    1820    1820    1820    17
20    1920    1920    2320    2820    3320    3520    3220    2520    2120    17
20    1820    1820    1920    1720    1920    1820    1920    1920    2020    23
20    2720    2920    3120    3220    2820    2620    2320    2020    1920    17
20    1620    1620    1820    1720    1820    1820    1720    2120    2820    37
20    4620    4520    4220    3520    2520    2220    2020    1920    1820    20
20    1920    1820    1820    1620    1920    1920    2020    2120    2120    22
20    1920    2020    1820    1720    1820    2120    2420    3220    3820    47
20    4720    4120    3120    2420    2120    1920    1920    1920    2120    22
20    2320    2320    2320    2520    2620    3420    5420   10920   23220   388
20   49420   52220   44120   31220   18620   12420    9120    6720    4420    35
20    3220    3120    3220    3920    5320    8020   12120   18020   27320   355
20   37220   33420   23620   13220    6920    4220    3520    3120    2920    26
20    2420    2220    2520    2520    2420    2320    2720    2720    3020    34
20    4820    8120   15520   26120   33720   35320   29620   19420    9820    48
20    3320    2820    2720    2520    2220    2020    2020    2020    1820    17
20    1820    1620    1720    1720    1620    1720    1720    1720    1820    16
20    1620    1820    1620    1520    1720    1920    1720    1720    1720    20
20    1820    2320    3320    5420    9420   13720   15720   14520   11220    69
20    3620    2520    2020    2020    1820    1920    1720    1720    1620    18
20    1620    1520    1820    1820    1720    1920    1720    1820    1620    16
20    1720    1619    1619    1819    1919    2319    2519    2619    2419    25
19    1919    1819    2319    2519    2919    3219    3319    3119    3419    42
19    4619    5119    4719    4619    4819    5119    6219    6119    5319    45
19    3219    2519    1919    1819    1819    1619    1819    1519    1619    18
19    1619    1519    1619    1919    2019    2219    2819    3219    3319    35
19    3219    3519    4519    5019    6019    6119    5719    4919    4119    32
19    2919    2918    2918    2718    2618    2418    2018    1618    1518    15
18    1618    1618    1518    1418    1318    1518    1418    1618    1718    15
18    1518    1718    1618    1618    1618    1618    1818    1918    1718    18
18    1818    1918    1618    1718    1518    1418    1418    1418    1518    13
18    1518    1518    1518    1718    2118    2718    3218    3618    3218    28
18    2318    1918    2118    2018    2418    2618    3318    3218    3218    33
18    3918    4317    4417    4017    3317    2617    2017    1717    1617    16
17    1817    2217    2817    3617    4917    5917    6717    6617    5917    53
17    4317    3617    3017    2917    3517    4317    5117    5617    5317    42
17    3317    2717    2217    1717    1717    1717    1717    1417    1517    16
17    1817    1517    1517    1717    1617    1517    1617    1717    1817    20
17    2117    2917    3717    4017    3817    3217    2717    2517    2417    28
17    3917    5316    5816    5816    5016    3716    2716    2016    1816    15
16    1716    1716    1716    1616    1616    1616    1516    1516    1516    15
16    1616    1416    1516    1616    1616    1616    1516    1516    1516    14
16    1516    1416    1716    1516    2016    2216    2616    3016    3216    28
16    2516    2216    1916    1616    1616    1716    1716    1616    1616    15
16    1616    1716    1616    1616    1616    1616    1616    1816    1716    19
16    1916    2116    2415    2615    2615    2615    2315    2115    2015    18
15    1715    1615    1715    1715    1815    1515    1715    1715    1915    19
15    2415    3115    3415    3915    3915    4115    4615    4915    5615    56
15    5215    4615    4515    4315    4815    5115    5115    5015    5015    45
15    4515    3715    3115    2615    2215    1915    1815    1915    1715    22
15    2515    3015    3215    3815    4015    3515    2715    2415    2015    16
15    2115    1815    1714    1914    1714    2014    1714    1814    1714    19
14    1714    2014    1914    2314    2814    3314    3614    4314    4714    50
14    4314    4114    3614    2814    2414    2014    1714    1714    1814    19
14    1814    1814    2014    1814    2114    2414    2014    2514    2614    29
14    3214    3214    3314    2714    2714    2314    2014    1914    1814    17
14    2014    1914    2214    2314    2314    2514    2414    2514    2314    25
14    2414    2614    2713    2613    3013    3413    3413    3513    3813    35
13    3513    3613    4113    5613    8313   12013   15913   18013   17913   159
13   12813    9213    5913    4213    3213    3013    2813    2513    3013    27
13    2913    3013    3613    4513    6013    8513   12413   16413   19513   217
13   23013   19813   15613   11013    7713    5413    3813    3613    3413    40
13    4913    6213    7813   10013   12413   14713   17513   18513   16913   148
13   11313    7913    5012    4012    3312    3812    4712    5512    6412    68
12    6712    5412    4612    3412    2612    2312    2012    2112    2112    23
12    2412    2612    3212    3512    3912    3812    3112    2912    2512    21
12    1912    1812    1612    1712    1912    1712    1712    1712    1812    20
12    2312    2312    2612    3012    3212    3012    2712    2612    2412    21
12    1812    2012    2812    3212    3812    3812    4012    3912    3612    34
12    3112    2812    2812    3311    3811    4411    5611    6311    6611    64
11    5511    5011    4011    3011    3111    3311    3411    3711    3611    31
11    2711    2711    2811    2011    2711    3011    4111    4511    5311    56
11    5411    4911    4011    3811    3511    3611    4511    5111    6311    73
11    8611    8811    8111    7911    7111    6611    6311    6111    4911    35
11    3011    2611    2411    1811    1911    2111    1911    1911    1711    17
11    1911    1911    1611    1810    2010    2010    2210    2610    2610    33
10    4110    5910    7310    7110    7510    7410    6210    5110    4010    34
10    3410    3210    2810    2710    2710    2410    2310    2110    2710    27
10    2510    2810    3310    3510    3310    3410    3410    3410    3210    27
10    2510    2210    2210    2410    2510    2610    2710    2410    2810    24
10    2310    1910    1910    1810    2010    2010    1510    1510    1710    19
10    1710    1910    1810    17 9    18 9    18 9    21 9    22 9    19 9    19
 9    22 9    22 9    23 9    20 9    24 9    23 9    25 9    30 9    33 9    35
 9    39 9    38 9    36 9    27 9    24 9    19 9    18 9    19 9    19 9    19
 9    22 9    19 9    18 9    17 9    17 9    20 9    18 9    18 9    17 9    17
 9    15 9    21 9    22 9    20 9    18 9    18 9    19 9    20 9    19 9    19
 9    17 9    19 9    19 9    17 9    18 9    21 9    21 9    21 9    24 9    34
 9    39 9    50 9    60 9    62 8    69 8    71 8    72 8    67 8    59 8    52
 8    46 8    45 8    44 8    35 8    34 8    28 8    27 8    23 8    21 8    20
 8    22 8    18 8    18 8    17 8    17 8    20 8    26 8    31 8    31 8    37
 8    36 8    37 8    37 8    38 8    35 8    28 8    26 8    26 8    21 8    22
 8    20 8    20 8    24 8    25 8    24 8    25 8    30 8    33 8    28 8    34
 8    31 8    29 8    32 8    32 8    28 8    26 8    26 8    27 8    25 8    25
 8    26 8    31 8    35 8    42 7    42 7    47 7    54 7    53 7    47 7    50
 7    51 7    53 7    51 7    53 7    59 7    66 7    65 7    69 7    74 7    66
 7    62 7    61 7    50 7    43 7    42 7    39 7    35 7    39 7    38 7    40
 7    45 7    49 7    46 7    52 7    50 7    52 7    48 7    46 7    40 7    30
 7    31 7    24 7    21 7    20 7    24 7    21 7    20 7    22 7    20 7    24
 7    26 7    26 7    28 7    29 7    32 7    33 7    32 7    34 7    28 7    31
 7    27 7    28 7    26 7    27 6    27 6    33 6    36 6    35 6    33 6    32
 6    32 6    32 6    29 6    28 6    24 6    20 6    20 6    23 6    21 6    23
 6    25 6    26 6    25 6    27 6    32 6    36 6    40 6    46 6    48 6    49
 6    62 6    68 6    83 6   100 6   135 6   143 6   156 6   155 6   153 6   153
 6   135 6   114 6    89 6    69 6    59 6    47 6    37 6    32 6    28 6    27
 6    26 6    28 6    23 6    27 6    21 6    20 6    21 6    26 6    22 6    26
 6    25 6    26 6    23 6    23 5    21 5    18 5    21 5    17 5    18 5    18
 5    20 5    20 5    21 5    17 5    18 5    20 5    18 5    19 5    22 5    21
 5    19 5    22 5    19 5    21 5    27 5    24 5    32 5    39 5    49 5    56
 5    65 5    78 5    91 5    98 5   110 5   113 5   123 5   118 5   114 5   111
 5    95 5    92 5    81 5    69 5    58 5    52 5    45 5    34 5    29 5    27
 5    22 5    20 5    19 5    22 5    21 5    22 5    16 5    19 5    18 5    19
 5    19 5    20 5    20 5    20 4    17 4    19 4    24 4    17 4    17 4    21
 4    22 4    22 4    19 4    16 4    17 4    20 4    18 4    17 4    14 4    18
 4    19 4    16 4    16 4    15 4    20 4    18 4    20 4    20 4    20 4    21
 4    17 4    19 4    18 4    21 4    24 4    24 4    32 4    35 4    39 4    42
 4    54 4    59 4    71 4    74 4    82 4    88 4    87 4    87 4    84 4    77
 4    65 4    66 4    55 4    45 4    47 4    46 4    39 4    35 4    38 4    30
 4    26 4    25 4    25 4    25 3    20 3    21 3    25 3    29 3    27 3    26
 3    34 3    41 3    36 3    38 3    42 3    39 3    38 3    36 3    40 3    43
 3    38 3    28 3    28 3    37 3    43 3    42 3    52 3    59 3    72 3    71
 3    80 3    78 3    81 3    85 3    69 3    72 3    59 3    58 3    43 3    35
 3    28 3    21 3    22 3    25 3    29 3    25 3    22 3    25 3    29 3    27
 3    31 3    36 3    36 3    34 3    37 3    30 3    36 3    35 3    33 3    35
 3    29 3    33 3    30 3    34 2    43 2    35 2    47 2    50 2    46 2    54
 2    58 2    55 2    54 2    59 2    50 2    43 2    49 2    45 2    36 2    32
 2    28 2    30 2    35 2    18 2    18 2    23 2    20 2    20 2    29 2    25
 2    20 2    16 2    22 2    24 2    22 2    19 2    19 2    23 2    26 2    17
 2    21 2    27 2    28 2    25 2    29 2    30 2    29 2    36 2    36 2    38
 2    44 2    35 2    37 2    39 2    50 2    47 2    49 2    49 2    56 2    52
 2    46 2    59 2    50 2    54 2    48 1    41 1    32 1    28 1    30 1    28
 1    25 1    29 1    21 1    26 1    18 1    25 1    19 1    25 1    21 1    23
 1    24 1    18 1    17 1    28 1    30 1    27 1    29 1    37 1    30 1    43
 1    37 1    37 1    26 1    31 1    37 1    51 1    31 1    28 1    36 1    13
 1    33 1    29 1    39 1    22 1    26 1    21 1    36 1    29 1    28 1    40
 1    30 1    41 1    32 1    35 1    29 1    34 1    37 1    35 1    27 1    27
 1    32 1    23 1    29 1    39 1    15

