Sample ID - Anode and Instrument                                                
BANK 1 8378 838 CONST 1500.66 1.31303 0 0 STD                                             
    2364    2382    2386    2357    2383    2462    2408    2528    2350    2437
    2444    2427    2318    2393    2358    2326    2286    2389    2359    2447
    2293    2422    2279    2328    2275    2333    2345    2366    2269    2279
    2372    2313    2258    2215    2338    2308    2315    2362    2374    2307
    2230    2374    2262    2251    2218    2292    2312    2285    2268    2280
    2228    2297    2265    2261    2241    2234    2262    2197    2297    2255
    2214    2252    2141    2288    2300    2200    2257    2287    2268    2219
    2319    2270    2202    2284    2186    2170    2177    2239    2174    2324
    2253    2246    2248    2218    2179    2115    2216    2124    2137    2122
    2173    2126    2246    2282    2168    2245    2200    2105    2145    2097
    2104    2245    2199    2269    2172    2128    2155    2164    2158    2178
    2117    2142    2169    2176    2160    2106    2158    2092    2145    2108
    2185    2200    2072    2113    2082    2083    2124    2084    2058    2074
    2046    2159    2085    2072    2241    2140    2126    2107    2099    2117
    2193    2185    2127    2180    2090    2077    2004    2034    2076    2051
    2073    2075    2102    2029    2037    2109    2046    2092    2140    2135
    2080    2077    2094    2136    2045    2055    2071    2054    2042    1926
    2052    2075    1991    2100    2054    1951    2170    2012    2040    2067
    2052    2054    2108    1978    2036    2040    1994    1989    1975    1980
    1990    2006    2030    2054    2052    1980    1993    2001    2038    1890
    1962    1993    1992    1922    1980    1984    1925    1963    1960    1945
    1932    1987    1893    1930    1993    1968    1941    1891    1866    1918
    1894    1948    1871    1908    1996    1922    1884    1998    1873    1920
    1983    1906    1918    1881    1904    1882    1998    1910    1998    1969
    1885    1888    1883    1844    1857    1907    1822    1831    1847    1835
    1902    1906    1870    1907    1923    1881    1950    1884    1937    1883
    1921    1886    1922    1905    1859    1805    1874    1922    1897    1854
    1943    1889    1855    1778    1930    1873    1958    1916    1884    1826
    1965    1907    1859    1741    1877    1764    1812    1870    1873    1875
    1855    1812    1823    1800    1871    1867    1758    1837    1878    1739
    1783    1848    1890    1881    1831    1871    1848    1762    1851    1812
    1754    1800    1817    1883    1775    1881    1866    1865    1824    1900
    1934    1920    1786    1783    1748    1777    1771    1824    1834    1882
    1792    1784    1715    1789    1829    1749    1745    1818    1733    1708
    1754    1763    1782    1757    1779    1800    1669    1757    1763    1733
    1790    1746    1735    1782    1677    1704    1770    1681    1703    1734
    1637    1699    1746    1714    1648    1690    1694    1749    1699    1764
    1715    1743    1699    1729    1790    1642    1629    1757    1724    1717
    1780    1740    1650    1614    1611    1729    1722    1736    1704    1661
    1663    1724    1706    1666    1734    1621    1762    1701    1648    1642
    1711    1628    1672    1734    1676    1700    1708    1640    1814    1695
    1651    1686    1739    1782    1806    1662    1678    1677    1749    1759
    1788    1785    1758    1874    1793    1742    1769    1844    1790    1780
    1824    1742    1781    1778    1837    1822    1812    1801    1752    1800
    1784    1743    1736    1833    1849    1741    1701    1734    1779    1879
    1901    1903    1989    2063    2025    2104    2076    2168    2346    2511
    2579    2803    2960    3239    3494    3830    4245    4778    5423    6178
    7092    8428    9817   11919   14453   17203   19968   22648   23629   22223
   18896   15802   13170   10637    7719    5406    3893    2840    2387    2150
    2082    2011    1998    1974    1867    1785    1724    1706    1795    1827
    1694    1627    1755    1660    1646    1658    1741    1689    1629    1567
    1567    1661    1647    1635    1663    1600    1616    1629    1641    1626
    1611    1590    1540    1623    1607    1668    1651    1686    1618    1596
    1579    1622    1572    1529    1554    1508    1614    1595    1568    1612
    1558    1559    1544    1490    1578    1535    1546    1531    1637    1495
    1500    1614    1550    1578    1539    1458    1515    1573    1475    1515
    1495    1595    1561    1535    1504    1495    1535    1582    1611    1513
    1491    1511    1616    1487    1494    1535    1526    1472    1473    1533
    1496    1454    1471    1458    1493    1435    1520    1493    1579    1550
    1478    1464    1424    1462    1559    1582    1557    1506    1480    1473
    1517    1482    1511    1483    1581    1526    1501    1479    1518    1523
    1426    1493    1475    1579    1544    1578    1490    1531    1478    1547
    1500    1427    1466    1457    1462    1496    1560    1492    1432    1456
    1487    1459    1484    1529    1420    1431    1470    1488    1498    1431
    1451    1473    1421    1497    1527    1437    1461    1404    1537    1501
    1421    1428    1394    1412    1484    1345    1415    1448    1466    1411
    1511    1472    1505    1436    1439    1393    1449    1435    1444    1490
    1480    1400    1422    1421    1360    1382    1410    1491    1359    1323
    1400    1372    1326    1423    1357    1465    1404    1378    1399    1417
    1419    1424    1354    1397    1437    1420    1413    1428    1341    1351
    1389    1420    1483    1421    1368    1429    1386    1444    1444    1418
    1331    1439    1483    1383    1413    1458    1466    1442    1363    1389
    1375    1351    1376    1331    1370    1386    1346    1385    1425    1325
    1377    1350    1352    1321    1355    1363    1319    1274    1321    1357
    1411    1384    1404    1351    1329    1329    1359    1259    1382    1358
    1375    1363    1352    1347    1301    1362    1354    1372    1419    1356
    1363    1373    1384    1346    1364    1364    1338    1366    1361    1403
    1374    1381    1351    1319    1350    1374    1298    1337    1367    1259
    1351    1332    1329    1329    1349    1327    1286    1381    1312    1269
    1316    1322    1304    1320    1336    1365    1313    1346    1222    1312
    1328    1367    1300    1291    1274    1264    1364    1356    1286    1355
    1265    1342    1297    1333    1279    1293    1271    1352    1306    1244
    1278    1185    1246    1339    1301    1277    1298    1267    1274    1284
    1336    1355    1299    1250    1349    1218    1236    1332    1251    1224
    1192    1351    1277    1250    1298    1253    1258    1245    1310    1289
    1319    1274    1284    1284    1254    1318    1262    1243    1245    1219
    1292    1324    1279    1270    1275    1278    1226    1325    1309    1232
    1238    1258    1253    1201    1182    1248    1231    1208    1233    1268
    1252    1257    1266    1216    1254    1176    1227    1206    1243    1257
    1315    1220    1186    1207    1215    1247    1221    1205    1221    1242
    1211    1271    1194    1183    1202    1256    1144    1241    1234    1150
    1228    1277    1217    1220    1220    1254    1187    1198    1253    1184
    1198    1214    1257    1249    1184    1249    1234    1278    1268    1242
    1210    1180    1233    1240    1297    1309    1304    1291    1257    1286
    1238    1227    1227    1269    1206    1247    1210    1213    1181    1128
    1228    1243    1133    1186    1200    1164    1197    1170    1203    1195
    1189    1213    1176    1127    1188    1152    1196    1169    1187    1139
    1163    1216    1121    1076    1161    1107    1135    1136    1096    1198
    1227    1188    1139    1202    1198    1224    1135    1149    1223    1150
    1104    1083    1148    1119    1147    1164    1154    1178    1128    1119
    1181    1181    1224    1163    1179    1135    1140    1137    1105    1073
    1153    1153    1180    1144    1173    1173    1138    1153    1156    1176
    1179    1186    1098    1115    1091    1117    1135    1172    1073    1047
    1137    1167    1163    1130    1056    1158    1146    1116    1137    1135
    1119    1077    1092    1181    1121    1059    1129    1139    1147    1106
    1065    1138    1100    1086    1130    1137    1137    1115    1118    1085
    1062    1110    1048    1101    1087    1069    1144    1137    1054    1142
    1119    1061    1124    1132    1104    1124    1114    1083    1195    1140
    1172    1134    1211    1251    1226    1238    1319    1292    1247    1286
    1281    1263    1258    1231    1169    1225    1135    1187    1250    1236
    1260    1251    1236    1245    1202    1245    1222    1201    1216    1183
    1209    1238    1197    1222    1308    1222    1257    1233    1194    1186
    1254    1179    1168    1184    1221    1252    1202    1203    1205    1148
    1206    1186    1266    1244    1232    1191    1292    1227    1337    1238
    1340    1362    1368    1351    1588    1555    1598    1732    1803    2149
    2309    2624    3007    3512    4037    4907    5535    6838    8275   10130
   12858   16550   21009   26492   31875   36373   37133   31941   25987   21547
   19437   19041   17633   13460    9153    6074    3802    2690    2179    1942
    1733    1701    1565    1482    1473    1390    1415    1314    1337    1363
    1274    1320    1218    1225    1262    1151    1222    1153    1234    1127
    1200    1259    1153    1125    1201    1154    1134    1188    1104    1200
    1167    1164    1197    1186    1126    1099    1148    1083    1084    1105
    1058    1075    1129    1094    1069    1035    1058    1030    1099    1040
    1022    1081    1060    1110    1066    1092    1067    1093    1024    1084
    1013    1043    1032    1133    1015    1064    1006    1010    1051    1015
    1009    1039    1059    1039    1053    1127    1019    1053    1034    1053
    1049    1055    1019    1020     995    1043    1015    1063    1080     987
    1002    1057     994    1051     992     989     981    1075     993     995
    1011    1005    1043     991    1056     988     983    1013    1037    1023
    1057    1026     982     987    1013    1015    1077    1017     963    1011
    1002    1014    1059    1035    1029     990     998    1026     971     954
     977     986     974     977    1077    1004     972     977    1016     964
    1014     980     994    1038    1023    1013     957     954     983    1035
    1051    1008    1017    1043    1014     978     983    1010     992     988
     966    1030     993    1040    1053     975    1006     947    1001     989
    1032     980     970     987     991     901     999     966     996     987
     973     959    1013    1013     933     945    1033    1002    1031    1008
     961    1000     966     985     976     967    1053    1040     949     946
    1014     978    1046     984     990     980     959     926     975    1000
    1015     999     972     915     978     977     932     910     976     995
    1011     952     983     973     895     940     926     954     944     980
    1005     991     935     930     919     980     958    1045     948     966
     982     934     954     850     920     968     961     923     918     897
     855     922     992     970     974     964     921     865     930     929
     916     928     928     898     923     883     886     902     861     926
     869     917     870     856     925     995     934     907     844     915
     908     983    1009     972     934     971     977     967     969     892
     969     946     992     910     933     866     930     918     931     915
     931     906     909     891     874     946     889     913     878     914
     959     885     905     872     954     889     904     882     879     925
     935     944     924     930     894     905     923     881     919     858
     908     868     860     890     840     874     849     809     818     811
     771     917     891     957     856     862     896     884     896     919
     875     887     815     828     863     863     902     887     918     904
     867     942     870     860     947     912     906     872     859     913
     855     869     841     888     889     823     863     854     846     824
     895     899     875     877     803     867     828     865     830     832
     835     877     856     870     875     836     825     819     844     885
     859     840     902     843     853     871     901     850     818     878
     855     831     851     847     836     754     874     797     822     832
     854     841     916     935     891     864     822     906     839     817
     867     833     908     929     838     877     869     919     909     922
     917     888     857     851     885     870     900     848     924     880
     889     917     850     850     831     880     832     837     885     865
     892     874     874     798     924     917     921     878     819     850
     875     846     833     902     884     875     853     869     807     830
     826     854     886     902     902     867     892     837     936     888
     825     902     879     825     854     906     878     899     902     858
     913     923     959    1055     995     964    1167    1178    1229    1405
    1469    1705    1884    2154    2408    2915    3626    4603    5744    7642
    9838   12288   14552   16060   15068   12164    9370    7888    7384    7785
    8222    7889    6388    4497    2992    2145    1563    1341    1191    1120
    1049    1028     979    1011     927     904     946     928     929     898
     950     818     842     875     858     888     855     891     806     901
     915     823     760     834     824     802     820     858     830     855
     848     838     793     806     838     774     821     812     820     746
     774     799     845     808     803     800     787     822     793     814
     764     781     785     797     772     810     800     748     811     775
     803     793     812     791     784     731     763     877     754     775
     800     789     781     728     732     797     854     782     751     773
     743     785     730     811     865     764     814     765     819     758
     784     717     786     735     781     765     771     797     752     768
     814     786     762     787     816     782     756     769     749     777
     778     842     782     806     739     762     832     765     730     797
     862     782     765     774     701     752     787     719     794     786
     747     741     765     702     740     770     697     772     709     760
     755     719     736     765     755     738     719     777     750     711
     743     720     737     707     771     791     758     728     790     789
     733     721     731     779     731     756     724     766     735     798
     746     810     756     711     760     739     775     770     731     733
     690     770     775     736     784     709     746     722     727     731
     782     743     716     712     758     736     696     761     686     746
     701     806     837     728     742     742     695     761     723     759
     744     717     748     679     766     676     748     741     741     725
     658     688     733     715     736     687     770     685     722     702
     684     658     714     728     711     727     727     752     718     722
     739     719     759     732     703     687     709     716     704     746
     665     706     704     697     772     713     684     671     699     689
     699     706     719     692     717     710     752     641     643     727
     703     642     687     701     736     742     694     734     687     708
     680     718     695     694     739     698     732     706     718     690
     668     669     708     689     663     681     674     698     707     675
     654     666     701     679     678     663     685     623     695     645
     725     711     684     635     648     719     740     653     715     701
     682     707     631     703     679     709     711     700     725     701
     764     739     703     702     714     701     660     637     656     679
     702     745     729     691     697     684     711     731     700     704
     691     714     707     685     747     738     728     660     667     673
     657     661     667     669     697     719     661     698     675     656
     682     672     680     714     669     715     660     668     679     685
     668     645     693     702     675     694     698     622     623     644
     701     682     681     652     690     687     672     710     720     673
     682     642     709     671     740     703     648     705     710     708
     644     673     657     722     697     676     652     653     702     692
     769     726     746     604     718     753     736     718     832     805
     815     924     954     921    1169    1241    1318    1530    1917    2229
    3027    3773    4933    6060    7480    8284    7486    5919    4390    3476
    3221    3331    3931    4296    4265    3682    2797    1998    1479    1071
     948     867     866     794     838     768     745     756     699     673
     650     677     661     744     758     747     718     727     686     766
     728     760     753     724     729     686     665     668     727     669
     647     649     683     637     662     685     654     619     641     643
     635     620     657     665     672     721     628     625     640     669
     684     623     692     698     689     621     660     725     648     655
     671     650     662     656     603     664     643     628     577     619
     598     619     611     620     700     640     655     590     638     571
     622     626     637     648     644     637     676     589     622     669
     629     618     664     632     607     585     651     639     646     636
     676     605     652     654     603     669     653     615     619     589
     628     617     608     671     651     636     600     590     636     650
     598     611     620     583     618     670     634     655     657     579
     622     638     617     584     589     601     606     594     599     602
     624     572     604     597     624     616     620     603     630     663
     619     553     564     618     591     626     544     616     591     599
     640     624     556     655     594     615     547     561     598     588
     612     596     605     609     612     634     597     578     596     617
     583     588     583     612     616     531     623     593     618     647
     653     618     592     621     595     627     565     592     609     637
     598     612     608     581     591     592     595     613     586     577
     616     596     617     622     611     647     609     559     616     626
     610     601     604     610     631     592     564     621     626     580
     634     594     609     596     588     629     606     604     606     551
     600     545     564     577     560     569     607     622     604     561
     567     532     568     599     595     575     599     603     582     583
     617     592     611     618     633     694     652     719     709     681
     639     648     595     630     572     623     602     566     642     628
     668     621     614     631     633     602     664     607     572     573
     642     623     632     586     623     691     614     644     608     683
     654     621     638     598     591     659     657     583     581     656
     609     656     637     641     553     599     594     534     535     588
     632     623     596     624     617     589     596     617     634     645
     583     603     543     621     614     641     610     613     587     617
     586     575     589     577     631     638     624     618     609     626
     618     638     650     594     632     621     618     662     662     672
     688     664     623     621     602     629     623     632     641     636
     606     680     675     657     657     699     669     693     686     751
     747     815     922     867     881     960    1032    1136    1215    1377
    1542    2015    2243    2978    3803    5041    6929    9107   11877   14919
   17229   17233   13764    9734    6886    5288    5203    5793    6921    8263
    8853    8567    6719    4641    3020    2066    1446    1181    1048     858
     909     822     849     741     741     743     759     686     645     737
     623     635     648     654     602     610     610     627     621     588
     621     635     592     634     619     553     574     591     576     549
     611     573     644     613     614     574     617     637     563     579
     539     595     557     627     553     539     510     579     586     603
     577     544     573     562     580     648     544     539     531     553
     551     611     596     541     561     575     598     585     570     549
     569     520     541     587     575     550     558     550     504     601
     572     549     554     568     561     552     567     559     547     580
     561     542     557     543     544     589     531     564     577     552
     568     543     579     601     563     558     577     553     522     516
     522     548     505     519     495     560     548     497     548     547
     543     576     539     528     545     560     550     538     533     557
     549     540     543     541     552     514     552     527     522     546
     505     508     527     545     541     529     578     551     574     538
     491     540     568     529     530     560     538     524     512     513
     567     535     518     497     532     539     570     567     594     493
     497     512     552     523     533     558     540     531     539     556
     495     515     549     541     574     538     530     535     532     604
     541     509     541     523     532     522     525     524     508     510
     498     520     538     533     596     563     505     532     566     596
     525     574     608     618     568     573     513     520     576     596
     599     569     543     540     525     522     501     545     536     502
     494     496     521     525     555     555     544     569     499     573
     489     519     542     583     543     541     565     549     478     518
     546     550     563     545     544     520     501     520     497     544
     564     512     496     471     514     514     525     542     563     529
     457     526     461     512     504     491     494     545     518     513
     544     574     513     549     539     501     572     518     522     526
     493     488     520     542     530     519     520     521     489     461
     519     527     580     506     514     566     498     518     528     521
     549     515     486     490     493     520     582     576     581     532
     575     525     519     503     519     527     554     552     547     490
     523     541     580     572     522     541     582     606     566     589
     578     626     611     607     649     672     713     660     719     672
     754     829     832     926    1059    1353    1544    1922    2600    3448
    4537    5988    7477    9002    9503    8007    5813    4049    2932    2454
    2462    2764    3327    4105    4788    4940    4333    3168    2259    1489
    1145     901     782     702     668     661     644     609     609     575
     589     571     602     630     522     543     515     525     511     546
     526     481     486     511     549     488     509     556     526     496
     478     525     494     495     499     481     563     515     502     554
     505     510     528     542     510     503     521     511     456     494
     491     511     542     510     517     487     494     475     487     492
     426     472     494     483     503     490     523     514     488     540
     494     481     549     534     482     507     469     483     433     508
     437     481     508     507     455     476     482     471     517     470
     477     466     463     493     456     494     467     517     567     511
     477     471     492     481     491     463     456     489     513     460
     458     442     486     489     464     442     461     434     486     508
     482     448     446     511     480     445     438     482     490     456
     465     493     497     478     468     472     495     471     489     446
     440     465     468     453     512     468     485     431     431     458
     491     420     468     459     455     444     497     437     465     474
     463     442     448     485     474     480     459     481     452     443
     430     434     443     460     529     489     507     449     507     508
     491     481     485     503     469     443     456     424     459     459
     423     434     458     418     427     461     452     468     453     473
     476     479     456     488     467     466     476     475     469     462
     461     424     482     510     462     473     472     475     483     509
     482     470     436     383     476     457     475     492     462     415
     422     481     489     438     443     448     483     465     411     491
     460     429     430     461     482     452     463     482     428     455
     494     506     467     467     439     410     446     452     469     432
     462     441     436     416     448     476     425     427     444     486
     437     469     466     424     457     431     415     467     430     444
     449     475     444     409     436     451     450     444     418     443
     463     455     418     423     469     452     503     416     413     395
     442     495     421     405     470     411     407     452     432     450
     471     478     434     429     482     463     449     452     482     454
     434     404     407     468     489     488     399     429     478     420
     414     410     431     404     460     438     442     425     392     445
     449     460     431     488     461     422     465     431     438     417
     404     464     411     450     423     474     450     459     463     435
     458     417     429     441     460     389     413     444     437     434
     465     402     475     428     444     451     477     466     402     436
     409     462     447     479     429     488     492     420     425     447
     465     391     405     402     411     406     437     447     460     423
     410     393     456     475     432     423     474     435     433     417
     422     443     417     458     430     413     421     460     401     400
     424     433     436     463     458     402     465     411     450     416
     436     404     410     410     414     412     381     418     400     427
     419     386     415     419     473     448     404     451     424     435
     432     437     423     415     427     416     411     471     424     437
     467     476     400     434     450     484     450     424     417     447
     432     450     403     427     407     398     430     416     426     405
     425     413     418     413     404     410     442     402     426     425
     418     416     403     465     444     394     394     412     400     422
     397     405     434     389     452     447     438     437     475     419
     436     409     430     438     390     440     414     378     395     408
     435     398     412     419     398     450     423     425     439     459
     395     398     466     417     472     410     437     429     446     400
     384     443     414     395     403     371     413     444     403     454
     413     449     406     409     443     452     484     417     436     437
     450     441     418     407     386     405     430     426     423     419
     428     383     377     466     398     417     390     409     391     402
     405     399     421     378     454     415     409     410     401     442
     417     421     439     394     377     428     425     387     408     429
     426     399     405     397     395     427     380     401     412     387
     416     382     415     442     412     392     410     430     427     411
     414     432     466     393     380     388     434     436     408     410
     446     411     412     370     429     413     399     433     394     439
     421     401     435     410     404     410     438     379     386     374
     431     389     418     423     405     400     401     411     380     425
     407     435     473     436     468     469     454     457     444     440
     446     415     473     470     482     470     521     527     618     735
     854    1116    1345    1751    2310    2864    3377    3573    3378    2609
    1798    1274    1055     842     891     982    1106    1279    1562    1861
    2020    1796    1602    1260     924     728     585     537     483     521
     468     488     445     453     433     418     413     417     414     454
     438     418     397     440     418     436     432     436     406     378
     374     410     423     434     400     418     417     405     401     402
     402     426     406     389     394     450     417     397     396     420
     408     394     392     394     425     399     399     397     394     383
     389     406     430     413     413     380     390     427     412     412
     397     389     413     420     411     423     376     429     385     382
     388     405     405     392     402     420     373     372     427     402
     419     375     390     407     372     413     391     373     392     427
     415     406     410     396     386     395     390     390     383     412
     374     383     385     384     365     383     413     401     418     438
     409     430     438     412     414     429     454     457     428     360
     411     428     411     427     393     409     451     411     388     411
     391     385     423     394     393     396     383     390     414     443
     421     412     416     417     381     386     412     386     393     391
     391     430     405     415     430     429     431     397     383     403
     366     367     358     373     402     406     375     381     384     364
     403     414     408     431     408     376     373     390     384     367
     375     392     365     394     416     384     393     395     404     383
     418     432     400     380     367     407     416     377     410     390
     368     383     420     377     418     422     351     421     401     390
     369     412     385     418     397     409     381     381     357     374
     385     393     389     393     413     370     387     394     388     375
     377     384     353     368     389     397     360     375     369     411
     388     371     410     357     345     400     412     385     402     377
     373     426     430     428     428     397     452     396     421     383
     379     400     364     395     422     423     420     380     429     403
     398     421     412     429     422     453     440     450     473     436
     472     506     486     481     514     485     475     492     514     537
     562     554     532     575     621     684     811     893    1073    1355
    1803    2268    3079    4275    5840    7582    8986    9272    7927    5698
    3890    2665    1915    1463    1487    1571    1842    2256    2803    3578
    4256    4693    4576    3607    2764    1834    1241     936     794     746
     583     542     564     526     527     502     462     436     484     399
     428     433     451     400     435     464     414     481     450     425
     460     392     414     447     434     417     401     385     442     428
     391     393     382     382     387     400     401     399     399     427
     367     368     423     393     386     405     340     375     417     399
     386     422     400     390     372     327     414     410     372     391
     376     370     366     361     417     418     370     382     360     356
     346     368     355     385     382     393     390     380     379     364
     393     375     371     425     439     409     384     360     417     371
     378     376     373     376     414     383     392     409     387     358
     410     391     396     400     374     372     382     384     370     397
     407     411     366     336     376     358     366     426     366     393
     420     362     371     378     362     372     396     404     334     398
     391     384     397     338     369     359     424     380     343     375
     386     369     395     405     369     370     390     387     394     390
     395     354     337     389     377     370     344     366     363     371
     356     399     354     370     373     361     373     359     370     392
     393     392     368     359     365     369     375     350     369     374
     417     379     355     368     367     367     342     382     394     363
     355     374     387     397     353     372     416     382     341     364
     395     360     357     368     383     377     412     374     400     394
     375     385     366     378     362     383     376     372     356     370
     377     394     398     408     435     372     381     385     374     395
     390     390     361     407     385     376     333     347     404     344
     371     409     363     387     429     402     368     347     364     367
     384     368     377     394     330     364     389     413     378     366
     377     347     407     385     386     395     426     388     418     433
     483     450     438     410     404     431     450     436     420     455
     465     424     500     456     501     583     624     763     874    1142
    1289    1804    2364    3224    4245    5450    6583    6634    5502    3901
    2752    1766    1349    1103    1056     997    1102    1284    1523    2007
    2536    3057    3534    3265    2784    2050    1453    1045     831     640
     622     532     495     452     448     447     455     425     410     398
     411     422     388     435     386     412     406     420     402     392
     377     411     363     382     353     355     364     351     324     398
     375     389     373     389     359     347     342     353     378     363
     378     395     373     356     401     348     378     369     370     354
     406     348     375     358     330     323     360     349     351     372
     370     399     341     354     394     425     358     321     343     364
     371     341     354     401     367     375     342     337     344     369
     374     361     332     372     344     398     373     371     317     357
     354     359     382     368     367     363     359     364     336     360
     322     339     308     341     390     379     349     345     303     358
     388     395     337     323     363     354     376     353     350     369
     366     364     361     342     344     356     363     344     360     366
     352     316     353     323     326     338     344     295     357     320
     370     385     376     375     356     355     367     330     351     355
     333     365     333     322     358     325     344     342     355     378
     352     368     338     375     348     347     338     358     355     367
     353     367     378     317     364     351     347     342     337     338
     367     388     371     347     363     345     324     346     371     377
     389     375     369     390     403     392     355     370     327     350
     345     326     307     350     333     325     347     321     364     367
     350     358     361     338     382     392     367     378     340     320
     356     321     339     319     363     309     329     351     335     337
     375     340     351     416     371     330     338     307     356     372
     336     352     341     356     358     353     347     320     347     373
     354     356     353     368     385     345     381     406     344     375
     371     382     366     385     402     370     380     403     360     338
     382     417     435     388     437     425     461     458     499     548
     644     770     925    1123    1497    2060    2676    3522    4279    4402
    3840    2957    2132    1372    1078     841     728     723     728     800
     889    1060    1223    1531    1903    2238    2266    2022    1744    1182
     874     717     568     509     483     453     433     375     458     387
     387     384     380     326     389     384     371     328     351     337
     358     363     351     356     325     360     347     344     313     343
     359     371     354     357     363     344     375     333     314     333
     366     386     348     316     326     353     381     312     322     331
     307     345     375     320     361     350     332     328     369     365
     334     294     337     310     358     342     327     356     331     334
     343     349     335     357     358     316     335     324     359     363
     332     321     329     320     350     337     354     348     336     320
     345     332     358     328     321     345     315     352     342     318
     349     310     324     306     349     325     338     348     341     339
     381     364     336     358     364     329     339     342     313     322
     330     313     324     370     316     363     350     317     324     347
     337     342     315     350     370     347     368     316     354     313
     339     391     320     323     297     334     319     355     325     335
     304     335     333     301     366     322     333     353     338     307
     356     334     357     307     317     322     305     343     308     334
     329     331     347     274     352     344     375     310     296     318
     323     328     314     343     320     319     293     338     322     336
     321     340     325     307     334     320     317     320     323     307
     297     323     359     330     317     319     299     339     351     353
     326     328     333     338     339     374     332     319     328     334
     334     297     292     341     309     327     303     291     308     319
     325     343     326     318     325     321     306     335     372     305
     345     301     321     354     363     293     307     300     321     335
     331     351     343     334     330     300     317     341     320     355
     338     311     330     326     332     348     301     361     351     323
     336     308     327     339     294     320     319     374     393     445
     430     546     665     676     884     969    1035     809     749     619
     503     452     401     382     371     347     367     374     378     444
     506     495     550     618     663     651     535     461     424     398
     351     359     354     331     306     332     344     316     305     322
     355     320     336     324     332     345     335     302     311     317
     300     289     326     304     313     296     318     325     311     336
     362     279     306     318     315     341     328     316     336     326
     327     355     331     303     317     335     280     294     311     301
     329     293     332     325     339     321     338     346     329     330
     314     306     326     299     319     285     322     334     298     341
     292     328     314     320     324     308     316     341     307     328
     310     325     319     300     305     319     313     338     306     324
     318     299     322     322     341     334     333     318     309     344
     295     308     312     327     300     303     323     323     309     297
     282     310     288     303     310     333     306     315     321     338
     308     308     328     344     344     296     319     316     322     326
     342     305     304     302     328     304     276     295     297     318
     336     331     296     322     331     333     331     324     322     315
     289     305     291     301     326     341     324     313     309     311
     284     314     313     304     301     319     316     306     291     314
     284     300     329     292     303     273     330     324     321     287
     286     318     328     302     287     324     315     317     322     313
     292     319     311     282     284     322     306     332     326     301
     315     298     309     265     324     283     300     304     335     329
     321     335     294     301     301     306     306     308     325     309
     318     343     324     302     320     319     339     349     301     375
     319     330     299     296     312     300     273     318     298     309
     329     354     301     322     363     374     337     315     347     356
     347     304     310     297     311     354     346     338     345     350
     362     354     363     375     346     389     403     397     452     449
     558     593     678     865    1097    1493    1918    2384    2796    2695
    2378    1824    1230     979     700     617     558     506     512     524
     554     575     623     689     837     983    1248    1486    1505    1458
    1163    1003     738     622     492     453     408     403     374     383
     368     366     372     362     324     318     313     344     298     364
     321     339     338     319     309     300     332     312     378     333
     327     312     305     362     283     322     327     307     321     325
     314     317     353     338     334     362     333     299     329     342
     303     311     301     318     313     324     350     330     315     309
     372     327     328     328     315     284     327     304     319     316
     326     289     352     315     298     286     289     317     299     323
     343     276     320     307     315     311     301     296     300     322
     323     322     280     278     297     314     312     298     312     299
     307     297     288     318     347     302     312     323     302     305
     313     294     294     316     331     315     294     269     338     320
     335     327     282     323     326     313     308     289     306     304
     293     332     337     318     307     326     355     333     304     301
     323     289     306     302     305     311     286     295     284     319
     306     343     313     315     326     309     290     277     316     304
     298     334     308     338     301     273     341     303     303     288
     351     308     275     316     300     303     292     318     303     311
     297     301     335     314     338     345     313     312     308     339
     305     320     297     330     304     307     320     321     340     309
     310     297     279     317     319     290     332     320     304     274
     343     314     317     332     308     283     286     328     306     318
     316     300     290     300     329     314     308     290     326     305
     319     353     324     303     317     322     323     314     338     346
     352     381     377     335     345     374     314     325     358     369
     349     330     342     354     323     354     345     368     346     381
     356     378     382     407     387     454     458     480     552     542
     680     744     990    1212    1602    2132    2882    3900    4884    5334
    5158    4150    3052    2057    1453    1105     934     729     673     604
     622     662     697     746     904    1044    1335    1659    2079    2505
    2715    2550    2132    1724    1289     914     781     665     546     503
     428     411     394     402     368     376     374     353     336     317
     343     348     324     350     376     356     315     323     286     322
     304     313     353     309     325     300     315     323     308     338
     310     316     326     303     321     309     288     329     335     278
     301     281     342     323     298     307     326     312     284     327
     315     289     338     308     309     301     320     312     289     290
     281     301     303     315     320     267     295     312     268     285
     340     307     300     294     296     297     303     282     263     304
     319     326     283     267     296     313     299     308     324     283
     277     306     284     307     274     324     314     285     310     291
     311     319     237     290     307     288     277     272     296     352
     302     310     306     280     307     285     300     287     283     310
     300     291     305     327     315     273     283     290     349     310
     315     288     291     325     296     296     305     304     307     293
     283     307     301     313     325     318     302     308     300     271
     301     281     280     304     322     297     316     340     281     244
     268     299     333     287     300     297     272     308     308     308
     318     323     297     283     286     315     305     328     321     291
     303     306     296     304     308     328     298     305     269     327
     330     323     293     323     314     306     281     279     298     293
     290     350     309     311     306     294     316     279     296     285
     289     286     336     292     281     319     264     303     307     318
     278     319     300     299     288     307     278     298     304     301
     294     273     260     275     276     278     293     256     296     315
     291     266     280     280     269     295     293     315     275     278
     296     296     271     299     286     311     289     294     291     292
     291     275     300     292     301     306     287     291     270     318
     312     315     280     297     291     319     285     313     288     328
     274     278     295     295     313     246     289     314     259     289
     258     293     319     299     246     277     273     308     278     276
     291     290     303     327     244     238     258     301     258     319
     280     283     283     265     278     274     278     274     306     315
     290     302     271     270     304     318     312     296     260     272
     321     305     328     303     310     301     298     302     284     285
     303     310     320     277     306     296     306     310     304     297
     267     265     305     318     291     300     309     298     268     276
     308     305     284     297     276     279     265     297     291     281
     241     264     283     300     282     291     239     289     319     296
     306     290     291     297     296     324     285     269     315     282
     289     293     282     281     257     297     258     296     285     297
     247     288     280     315     301     293     304     289     308     291
     276     311     298     316     310     318     265     321     275     318
     286     305     311     295     286     287     281     296     299     288
     281     278     317     276     279     305     282     242     299     260
     277     304     260     281     315     266     292     244     281     287
     319     269     281     284     278     286     277     280     308     300
     292     302     325     289     313     296     241     309     257     279
     318     269     278     288     285     285     264     287     288     272
     305     294     317     313     292     269     291     303     295     303
     256     277     300     235     248     289     297     287     304     282
     291     309     291     279     317     300     274     281     331     296
     310     291     297     273     288     304     292     304     296     298
     298     273     290     296     320     303     270     286     301     299
     278     312     309     327     279     280     271     316     282     304
     306     302     304     304     288     308     273     324     328     318
     348     311     320     279     302     310     336     325     320     334
     347     356     367     397     496     537     708     804     908    1058
    1119     950     792     625     561     470     428     399     392     357
     343     329     338     344     347     358     336     402     418     433
     524     529     631     655     687     621     623     505     452     370
     382     336     290     327     329     319     320     305     312     285
     290     282     280     282     323     295     325     274     278     330
     279     292     266     313     324     292     292     303     283     281
     304     290     304     306     284     280     293     296     293     298
     303     257     295     301     284     302     273     267     289     308
     288     295     257     277     280     282     308     291     310     316
     259     299     304     267     300     326     299     330     300     323
     313     329     297     304     296     304     296     313     316     287
     281     295     333     295     278     270     297     292     305     302
     315     280     289     322     299     275     298     270     268     281
     307     295     295     279     285     258     273     275     280     297
     311     307     291     284     275     292     293     272     316     346
     314     304     299     276     288     291     304     300     301     328
     268     301     310     301     309     304     294     291     271     306
     299     270     294     285     289     320     315     305     295     295
     295     292     279     259     286     287     277     285     308     286
     287     311     322     289     311     270     287     261     292     297
     292     318     304     294     316     298     292     282     290     284
     311     288     264     260     299     316     302     314     281     322
     298     307     286     341     288     302     287     306     289     290
     286     303     301     278     318     321     303     293     359     308
     268     303     291     280     322     310     293     290     295     302
     314     299     303     312     307     303     280     360     324     344
     296     333     339     341     340     359     337     289     312     317
     336     333     308     354     335     276     339     359     331     371
     358     352     324     366     387     419     402     361     413     449
     481     492     533     603     704     839    1015    1355    1837    2441
    3107    3944    4424    4157    3388    2626    1902    1419    1095     915
     721     659     547     549     566     500     536     520     503     523
     557     671     808     966    1220    1508    1800    2146    2264    2032
    1838    1461    1092     899     688     614     506     432     467     408
     395     364     360     355     367     349     364     342     353     359
     352     336     324     329     342     356     300     349     326     335
     313     313     299     319     276     277     301     301     288     290
     289     296     284     311     326     332     338     323     300     292
     295     294     315     335     317     294     293     308     313     291
     330     307     310     309     303     305     309     339     277     315
     269     263     264     299     304     292     287     310     299     280
     269     275     291     312     319     314     293     309     310     265
     257     319     298     307     273     332     298     269     339     290
     306     303     334     315     277     260     288     311     286     286
     287     287     276     353     340     320     301     271     303     279
     263     315     290     303     335     323     278     290     296     310
     329     269     289     303     312     282     288     315     307     261
     301     286     330     300     333     341     305     303     279     303
     283     263     304     311     274     312     300     302     311     273
     314     315     294     292     300     288     293     303     298     309
     282     304     307     247     280     290     288     292     281     297
     312     289     302     260     307     321     311     314     310     299
     306     273     300     296     318     324     304     321     246     297
     313     351     309     273     326     340     298     312     315     295
     300     287     335     305     310     297     335     314     284     295
     330     304     307     312     320     308     311     326     347     312
     341     323     301     304     322     298     312     330     289     338
     331     320     324     309     282     332     337     335     270     315
     328     336     312     324     324     344     304     308     313     324
     351     370     377     349     414     419     464     503     496     584
     637     725     922    1105    1504    1977    2522    3156    3687    3599
    3079    2361    1781    1457    1112     863     711     605     562     477
     508     489     478     470     450     403     460     517     500     632
     702     810    1012    1188    1496    1782    1917    1787    1584    1337
    1048     897     728     551     537     485     462     414     365     371
     357     356     345     376     364     352     348     322     343     356
     319     334     321     326     290     325     279     309     296     282
     316     295     292     309     263     291     293     264     314     261
     258     328     307     321     337     338     306     298     321     314
     305     301     281     303     285     295     299     309     289     295
     272     262     297     328     326     296     283     305     310     305
     334     291     289     321     322     310     299     283     258     275
     299     332     292     281     299     301     290     323     280     284
     336     309     310     315     276     287     272     279     291     281
     289     300     296     289     261     307     296     334     288     276
     279     298     295     287     276     291     324     295     272     321
     249     277     291     306     325     282     290     298     295     299
     286     276     278     321     327     298     301     289     294     279
     281     260     269     295     278     267     299     286     305     303
     323     308     307     269     281     310     297     321     297     312
     308     280     271     248     293     264     317     315     303     313
     300     309     280     295     303     314     301     309     312     282
     300     311     302     299     294     297     295     290     286     280
     352     323     299     285     309     311     295     313     301     306
     320     292     307     315     261     274     337     323     306     281
     333     289     272     286     294     274     326     318     321     274
     319     353     339     287     290     310     311     283     292     327
     313     282     298     286     295     287     327     289     314     305
     303     320     331     275     339     344     301     302     318     298
     282     310     283     292     315     288     323     318     334     357
     329     321     343     340     331     340     311     343     360     436
     371     434     457     533     563     704     878    1072    1351    1641
    1739    1546    1332    1110     908     729     597     550     463     449
     410     379     398     362     338     340     376     348     413     374
     383     381     412     454     451     546     587     740     811     949
    1035     880     794     664     580     476     477     442     375     342
     351     356     352     338     357     360     335     348     314     307
     314     322     299     330     325     299     318     316     303     275
     291     294     304     302     326     298     312     325     311     291
     298     290     300     317     303     288     294     308     301     295
     310     293     265     286     280     325     314     288     299     349
     313     297     296     260     309     313     313     299     300     317
     310     323     296     326     277     305     287     313     291     311
     279     304     316     289     325     297     292     303     304     289
     301     298     284     248     301     295     304     286     292     283
     299     268     319     283     324     301     329     305     295     304
     307     330     275     292     273     317     275     318     273     304
     293     276     299     306     309     292     296     310     303     278
     325     301     299     305     292     277     310     323     278     296
     331     308     305     305     291     335     302     302     300     293
     309     292     316     311     310     317     290     320     292     310
     323     324     276     303     293     280     330     317     279     276
     294     332     294     308     266     297     307     304     336     276
     320     310     301     286     294     269     325     299     341     309
     270     301     295     317     307     273     323     320     313     321
     323     324     329     299     289     288     285     289     313     316
     293     296     288     292     314     298     304     266     293     300
     317     282     300     279     323     308     315     334     324     359
     287     289     323     338     319     230     316     334     319     320
     318     304     310     316     294     282     314     312     304     316
     346     335     322     329     330     326     292     308     344     321
     297     328     330     333     324     337     321     299     331     324
     368     351     372     372     343     387     416     375     466     485
     482     563     616     753     897    1181    1518    1881    2234    2263
    2168    1747    1435    1101     879     754     652     585     518     537
     457     406     403     384     420     382     353     352     352     371
     419     418     417     458     484     571     608     733     856    1045
    1128    1191    1196    1037     929     779     685     576     516     442
     397     398     403     372     382     340     335     337     345     345
     342     357     303     376     294     325     295     317     309     330
     288     339     305     323     297     326     355     325     310     333
     303     332     317     332     330     270     329     346     309     278
     327     299     320     355     327     327     319     290     305     293
     310     323     297     306     324     355     306     329     320     340
     324     288     340     318     357     311     290     298     284     301
     308     328     268     283     303     311     292     290     308     288
     287     294     303     306     309     297     298     305     281     306
     292     309     272     288     296     288     281     298     308     287
     311     349     330     303     261     284     316     306     323     292
     301     320     325     309     295     297     294     311     307     273
     306     294     300     316     309     311     315     316     295     329
     320     317     311     303     310     342     314     312     288     311
     325     348     277     304     307     300     333     310     328     337
     325     288     335     293     312     307     305     296     321     314
     303     307     293     308     308     311     332     318     308     316
     342     303     306     289     319     296     287     327     308     348
     310     326     317     354     288     299     283     294     319     275
     319     297     290     299     320     311     291     309     348     311
     302     291     321     340     291     297     272     320     338     291
     322     349     301     334     320     313     321     294     329     337
     329     332     327     316     344     286     324     316     331     347
     383     340     332     334     303     355     321     332     354     334
     338     319     335     316     362     322     319     360     353     325
     303     339     360     325     347     352     341     343     388     364
     356     336     348     358     349     349     380     397     408     439
     411     441     460     467     495     530     585     611     696     785
     952    1183    1477    1896    2518    3233    4075    4386    4192    3750
    2973    2388    1891    1445    1186    1036     836     791     660     623
     572     538     536     504     492     470     482     464     502     470
     489     466     556     605     619     667     821     923    1138    1373
    1743    1956    2114    2095    1989    1663    1447    1234    1011     883
     726     658     542     505     442     450     404     399     443     391
     389     352     342     335     365     348     360     338     380     341
     386     356     376     354     301     318     324     330     357     364
     347     323     338     327     328     327     312     342     320     381
     331     316     352     309     330     335     356     341     323     304
     329     343     301     330     355     350     341     332     323     305
     306     333     327     326     310     313     329     312     319     299
     325     313     311     274     296     314     281     323     338     319
     282     329     315     325     312     292     315     311     289     315
     285     307     296     310     288     316     324     303     307     321
     313     307     301     329     313     312     287     303     291     274
     286     305     308     323     297     315     324     306     281     326
     314     297     299     294     333     304     334     307     297     308
     322     302     314     323     303     348     305     328     333     299
     315     329     311     293     310     296     287     314     275     312
     310     319     311     331     293     318     315     297     325     274
     314     311     309     338     346     328     320     304     291     306
     337     297     332     313     309     309     304     331     315     341
     330     303     299     313     325     326     308     326     325     315
     311     328     292     292     308     316     279     315     287     323
     311     331     294     271     279     266     329     303     321     333
     293     305     290     291     342     289     312     334     292     327
     266     309     325     343     348     343     345     279     287     330
     332     284     335     306     331     322     328     335     286     314
     346     337     297     316     350     336     298     297     299     329
     300     346     311     303     319     292     338     321     336     346
     342     342     318     327     307     309     327     350     324     335
     329     327     342     309     356     353     312     318     339     364
     409     372     382     362     424     395     449     405     473     521
     520     636     678     811     983    1291    1687    1999    2270    2445
    2094    1807    1403    1240    1123     855     713     634     574     582
     507     484     440     431     394     427     383     367     391     405
     329     372     392     356     431     432     490     469     485     480
     515     563     628     775     994    1007    1138    1183    1185    1093
     970     826     740     659     581     520     465     444     444     399
     360     406     412     385     368     362     350     334     377     341
     351     331     367     349     354     337     312     356     307     346
     337     358     297     341     325     334     342     289     339     334
     328     333     332     296     321     357     281     338     313     295
     308     323     349     337     316     328     294     298     310     310
     314     336     328     333     329     317     305     329     330     316
     303     307     310     299     307     331     308     318     308     316
     331     291     313     318     334     320     362     312     311     295
     303     294     299     283     316     354     346     314     304     324
     336     270     330     353     372     318     294     319     304     280
     296     330     284     329     333     339     312     313     332     329
     310     308     296     318     307     308     348     304     331     301
     334     295     311     298     318     289     298     328     346     298
     291     308     314     292     331     347     321     321     311     316
     314     293     307     352     292     292     308     300     301     335
     305     306     311     362     324     329     315     293     311     298
     315     308     337     321     315     297     314     306     320     338
     287     347     329     326     316     309     330     298     302     333
     334     343     287     345     295     317     302     332     296     313
     323     332     299     294     309     340     315     332     327     344
     348     323     303     322     326     314     317     355     325     292
     318     341     334     315     334     337     244     300     291     304
     297     325     292     362     338     301     322     305     310     313
     329     338     310     308     305     305     334     313     296     333
     321     324     386     338     296     260     300     322     324     327
     297     308     331     301     294     303     296     303     337     350
     314     346     316     323     312     299     318     321     277     347
     318     330     350     318     335     298     302     370                
