Sample ID - 105870-pe-GaPO4.tif                                                
BANK 1 2250 225 CONST 1.00 2.00000 0 0 STD                                             
       0       0       0       0       0       0       0       0       0       0
       0       0       0       0       0       0       0       0       0       0
       0       0       0       0       0       0       0       0       0       0
       0       0       0       0       0       0       0       0       0       0
       0       0       0       0       0       0       0       0       0       0
       0       0       0       0     772     770     781     792     808     817
     808     796     797     791     781     774     794     885    1060    1230
    1220    1000     804     723     681     666     663     667     671     673
     671     675     693     715     756     849     942     996    1030    1030
     952     826     752     728     726     718     704     698     701     709
     720     732     748     765     787     817     872     965    1090    1160
    1150    1160    1390    2020    3690    5840    6450    4880    2880    1720
    1420    1480    2000    2970    3510    2980    2030    1420    1190    1100
    1080    1150    1370    1620    1610    1350    1120    1050    1080    1170
    1340    1710    2730    5140   11800   22700   30100   25400   14200    6010
    3060    1780    1330    1150    1060     944     829     768     767     840
     952     978     869     731     651     624     622     639     667     677
     662     663     703     735     748     822     982    1050     909     702
     585     535     520     520     520     517     518     539     567     577
     569     559     548     535     531     543     582     688     987    1660
    2750    3200    2590    1740    1480    1650    1690    1380    1050    1040
    1540    2790    4490    4890    3530    1940    1280    1290    1970    2940
    3270    2480    1470     886     666     586     577     624     775    1170
    2190    3790    4800    4040    2410    1460    1120     937     771     727
     853    1010    1010     835     682     603     609     721     900    1080
    1270    1420    1300     940     671     559     518     499     490     490
     496     505     534     614     828    1340    2540    4450    6130    5820
    3850    2020    1100     729     588     524     500     490     488     488
     490     487     475     461     455     463     493     560     680     889
    1280    1960    2620    2620    1930    1170     792     699     786    1030
    1250    1170     893     677     610     654     796     966    1120    1340
    1570    1510    1150     845     726     742     906    1370    2500    4200
    4970    4010    2390    1310     888     715     657     643     637     633
     669     815    1150    1670    2190    2270    1790    1170     793     649
     588     560     548     547     554     566     586     623     694     829
    1060    1430    2070    3390    5280    6250    5310    3670    3000    3320
    3300    2440    1490     956     740     644     603     584     582     607
     673     773     887    1110    1580    2070    2070    1540    1080     924
     862     751     632     567     543     536     544     580     679     915
    1390    1920    2010    1560    1030     744     627     578     567     591
     682     859    1050    1100    1030    1030    1250    1620    1900    1940
    1800    1610    1420    1220    1010     859     882    1160    1670    1930
    1690    1210     886     753     715     713     739     806     866     820
     670     539     475     450     443     454     495     591     736     878
     916     807     630     504     447     428     427     438     467     501
     513     510     541     676     968    1290    1330    1060     775     717
     843    1010    1030     925     840     781     689     618     621     737
     998    1310    1450    1370    1160     901     671     547     492     481
     506     586     772    1010    1090     923     709     626     705     870
     954     854     680     583     604     771    1140    1620    1830    1590
    1160     830     683     661     683     721     766     794     790     761
     706     653     691     881    1140    1200     995     714     545     479
     457     461     484     505     498     470     445     435     439     458
     499     562     638     702     768     909    1160    1410    1470    1390
    1300    1240    1170    1020     801     614     525     516     563     641
     710     721     659     582     529     486     446     425     428     460
     532     641     714     682     587     532     551     581     571     533
     505     512     557     591     562     494     450     451     477     518
     559     590     624     708     819     861     803     728     671     607
     533     486     475     486     522     607     715     743     659     557
     519     550     605     658     695     687     642     629     675     690
     642     609     634     679     700     710     735     787     882     999
    1110    1140    1050     868     672     532     462     433     424     423
     424     421     416     416     429     460     499     520     524     556
     660     793     841     764     654     606     623     655     656     604
     528     475     469     499     542     568     577     589     594     585
     603     657     671     604     514     459     450     468     497     532
     591     667     696     650     595     604     649     658     610     570
     584     632     642     596     526     464     422     402     394     393
     397     401     406     417     450     516     598     655     664     642
     646     687     708     668     602     538     485     459     460     489
     537     593     644     673     656     594     532     498     474     457
     460     471     467     455     459     480     491     481     472     484
     520     556     577     580     561     513     456     416     400     400
     407     415     427     444     458     457     447     453     484     510
     498     459     437     447     470     487     502     516     509     481
     471     493     514     506     476     443     419     414     429     446
     442     418     397     391     395     404     408     408     420     446
     463     452     430     427     446     464     456     432     414     406
     406     416     436     458     470     463     447     429     407     383
     367     360     360     367     384     416     456     490     513     537
     557     548     512     475     460     468     475     464     441     423
     419     429     442     449     446     438     437     440     436     429
     430     430     419     403     398     406     423     451     486     511
     511     507     520     535     528     502     468     433     406     391
     384     384     390     406     435     466     481     491     517     550
     548     502     450     422     407     392     375     364     359     360
     363     364     364     364     366     369     377     399     436     472
     483     464     436     418     412     410     404     391     378     374
     380     387     390     389     385     377     367     360     358     359
     361     370     385     400     406     401     391     382     385     402
     418     421     414     410     415     421     417     406     399     401
     408     410     403     394     390     388     384     383     389     399
     407     410     406     398     393     391     387     381     376     372
     371     371     375     382     387     392     403     416     421     418
     411     406     404     404     401     392     379     368     365     370
     380     390     399     399     391     380     372     372     376     379
     377     372     369     364     359     358     367     385     407     417
     408     387     368     356     351     348     347     349     355     367
     379     389     395     398     393     380     369     364     366     370
     377     383     383     378     369     362     360     364     373     385
     397     400     394     386     381     379     379     379     377     373
     373     378     385     389     386     378     368     362     363     372
     385     401     414     424     426     422     416     410     399     384
     369     360     358     358     361     367     373     377     378     379
     381     384     384     380     374     367     361     357     356     357
     358     357     352     346     342     341     343     344     345     346
     351     360     371     379     382     376     368     360     355     354
     356     358     360     361     362     363     364     362     360     361
     362     360     356     354     355     358     360     361     359     356
     351     348     348     350     350     351     352     357     364     368
     368     367     367     367     367     366     364     362     364     367
     371     372     370     366     362     358     357     359     363     369
     374     373     368     361     355     352     351     352     353     354
     354     354     353     354     357     363     370     374     375     374
     375     378     378     373     367     363     362     365     370     371
     368     365     363     363     361     360     360     359     357     355
     358     364     371     374     373     369     362     355     350     350
     353     358     362     364     362     359     355     352     350     347
     346     346     346     347     347     347     348     351     354     357
     356     355     353     354     355     355     354     352     352     351
     350     348     346     346     346     349     351     355     357     359
     358     357     355     352     350     348     346     345     344     345
     348     350     352     354     355     355     356     357     358     359
     359     357     356     355     355     355     354     352     350     349
     350     353     356     358     358     356     352     348     345     343
     345     348     349     348     346     344     344     344     346     346
     346     344     343     341     341     342     343     344     344     344
     344     345     346     348     350     350     351     351     350     348
     347     346     347     349     352     353     352     351     350     349
     349     348     349     350     351     353     354     353     352     350
     348     346     345     345     347     350     353     355     356     356
     354     352     350     350     350     351     352     352     353     354
     357     359     359     357     355     353     351     349     349     349
     349     349     350     350     351     352     353     355     355     354
     354     353     353     354     356     357     358     358     358     358
     357     356     356     356     355     355     354     353     352     352
     353     355     356     356     353     351     349     350     352     354
     357     358     358     357     354     351     350     349     349     349
     349     349     350     350     351     350     350     351     352     353
     353     353     352     351     350     349     349     349     350     350
     351     351     351     350     350     349     349     350     351     351
     351     351     351     351     352     352     353     354     355     354
     353     353     353     353     352     351     351     351     352     352
     353     353     353     353     353     353     354     356     357     357
     357     356     356     355     356     356     356     355     355     354
     354     354     353     352     352     352     353     354     355     355
     355     354     353     353     352     352     353     353     354     354
     353     353     353     353     353     354     355     355     355     354
     354     353     353     352     353     353     354     354     354     354
     353     352     352     353     353     354     354     354     353     353
     352     351     350     350     350     350     350     350     350     350
     350     350     350     351     352     353     353     353     353     353
     352     352     352     352     351     351     351     351     351     352
     352     352     352     352     352     353     352     352     351     350
     350     350     349     350     350     350     350     350     350     351
     352     353     353     353     352     352     352     352     352     352
     352     352     352     352     352     352     352     351     352     352
     352     352     352     353     353     353     354     354     354     354
     354     353     353     353     353     353     353     353     353     352
     353     353     353     353     353     353     354     354     354     354
     354     354     354     354     355     356     356     356     356     356
     356     356     356     357     357     357     357     357     356     356
     356     357     357     357     357     357     356     356     356     356
     357     357     358     358     358     358     358     358     359     359
     359     358     358     358     358     358     358     358     358     358
     359     359     359     359     359     359     359     359     359     359
     359     359     359     358     358     358     358     358     358     358
     359     359     359     359     359     360     360     360     359     359
     359     359     359     359     359     359     360     360     359     360
     360     360     360     360     360     360     360     360     360     360
     360     361     361     361     360     360     360     360     360     360
     360     360     360     360     359     359     360     360     360     359
     359     359     360     360     360     360     360     360     360     360
     360     360     360     361     361     360     360     360     360     359
     359     359     360     360     360     360     360     360     360     360
     360     360     360     360     360     360     360     360     360     360
     360     360     360     360     360     360     360     360     360     361
     361     360     361     361     361     361     361     361     361     361
     361     361     361     360     360     361     361     361     362     361
     362     362     362     362     362     361     361     361     361     360
     359     358     358     357     356     356     356     355     354     354
     354     353     351     350     350     351     352     352     353     353
     353     354     354     354     354     354     354     354     354     354
     353     353     353     352     352     352     352     351     352     353
     354     354     355     355     354     355     356     356     356     357
     357     357     357     357     357     357     357     358     358     357
     357     358     357     358     358     357     357     356     356     355
     355     355     354     353     353     353     353     352     351     350
     350     350     349     350     352     352     352     352     352     353
     353     353     353     353     353     352     352     352     351     350
     351     350     350     350     350     350     350     351     351     352
     352     352     352     353     353     353     353     353     353     353
     354     354     354     354     354     354     355     355     355     355
     355     355     355     355     355     355     355     355     355     356
     356     356     356     356     356     356     357     358     357     356
     356     357     358     358     357     357     357     357     357     358
     358     358     358     358     358     358     358     358     358     358
     358     359     358     358     359     358     358     358     359     359
     359     359     359     358     358     358     359     359     360     359
     359     359     359     359     359     359     359     359     359     358
     359     359     359     359     359     359     359     360     359     359
     359     359     359     359     359     359     359     359     360     360
     360     360     360     359     359     359     359     359     359     359
     359     359     359     358     359     359     359     359     360     360
     359     359     360     359     359     359     360     360     360     360
     360     360     359     359     360     360     359     360     360     360
     360     360     360     359     359     359     359     360     360     360
     359     360     359     359     359     360     360     359     360     360
     360     361     360     360     359     360     360     360     359     359
     360     360     360     360     360     360     360     360     360     360
     359     359     359     359     359     359     360     359     359     358
     359     360     360     359     359     359     359     359     359     359
     359     360     359     359     360     360     360     359     359     360
     359     359     358     358     359     360     361     360     360     359
     359     359     359     359     359     359     359     360     360     360
     359     359     359     360     360     359     359     359     359     358
     359     359     359     359     359     359     360     358     358     360
     360     360     359     359     359     359     359     359     359     359
     359     359     358     358     360     360     358     358     358     359
     359     358     358     359     358     358     358     358     357     357
     357     358     359     358     358     358     357     357     356     356
     357     356     355     354     356     356     356     356     356     356
     356     357     356     356     357     356     356     356     355     355
     356     355     355     355     355     354     354     354     353     354
     356     355     355     355     355     354     354     354     353     354                                                                                
