                                                                                
BANK 1 2459 492 CONST  202.500    5.000 0 0 ESD                                 
  927.65   29.15  866.33   28.27  860.29   28.07  820.19   27.42  801.98   27.02
  724.35   25.71  799.41   26.99  745.43   26.22  730.22   25.90  722.96   25.80
  709.26   25.30  722.39   25.83  685.92   25.00  679.14   24.95  645.22   24.32
  653.24   24.55  611.65   23.65  644.16   24.31  616.50   23.85  608.04   23.72
  574.98   22.91  598.00   23.51  572.15   23.07  566.93   22.88  599.70   23.47
  522.03   21.92  555.14   22.66  598.47   23.56  544.96   22.45  519.03   21.68
  539.94   22.30  573.91   22.86  551.06   22.57  511.49   21.61  506.67   21.47
  514.90   21.78  493.73   21.29  506.14   21.60  518.10   21.74  516.56   21.77
  491.39   21.19  487.66   21.18  473.27   20.92  503.95   21.45  470.61   20.78
  477.50   20.92  466.64   20.66  486.09   21.17  461.84   20.65  486.79   21.16
  489.87   21.18  448.35   20.23  481.52   14.80  479.11   14.79  469.74   14.64
  486.66   14.91  456.75   14.36  476.69   14.75  454.99   14.47  475.79   14.75
  475.71   14.80  459.60   14.52  450.11   14.28  437.23   14.17  435.68   14.10
  432.07   14.05  463.54   14.54  430.13   14.02  443.08   14.26  427.55   13.97
  428.85   14.02  425.96   13.96  451.58   14.38  413.32   13.76  415.25   13.80
  399.01   13.49  409.89   13.66  393.01   13.39  393.25   13.43  391.28   13.41
  394.53   13.45  397.92   13.41  391.11   13.32  391.79   13.29  400.40   13.57
  389.16   13.33  390.01   13.30  376.69   13.12  383.10   13.21  388.45   13.32
  378.83   13.12  378.94   13.21  373.35   13.05  381.04   13.18  382.04   13.16
  371.78   13.01  377.58   13.15  372.53   13.03  365.56   12.91  379.16   13.24
  372.33   13.07  368.50   13.00  372.08   13.02  370.63   12.96  356.46   12.71
  363.63   10.45  389.38   10.82  368.43   10.52  361.61   10.43  371.84   10.58
  371.41   10.61  357.55   10.36  368.38   10.59  364.78   10.50  363.80   10.45
  358.26   10.36  352.92   10.31  345.53   10.22  353.61   10.31  353.26   10.29
  349.55   10.29  355.32   10.34  347.75   10.24  334.88   10.05  340.16   10.16
  341.84   10.14  344.07   10.20  340.00   10.12  338.53   10.10  329.63    9.98
  338.02   10.09  331.41   10.03  336.65   10.09  348.16   10.25  341.64   10.11
  333.13   10.01  341.63   10.14  337.85   10.10  332.96    9.98  333.48   10.00
  341.62   10.15  326.05   12.08  342.70   12.40  358.04   12.71  325.37   12.08
  337.68   12.27  332.22   12.15  334.17   12.26  361.01   12.72  332.93   12.21
  325.76   12.08  326.14   12.15  328.56   12.16  325.61   12.13  327.37   12.12
  330.24   12.13  316.92   11.89  322.27   12.00  341.46   12.33  318.58   11.93
  332.01    9.99  346.37   10.17  332.77   10.00  326.11    9.91  328.70    9.92
  323.48    9.87  341.25   10.08  341.77   10.13  324.80    9.86  325.69    9.92
  326.18    9.85  335.58   10.01  316.59    9.72  328.81    9.95  330.04    9.95
  325.50    9.89  322.26    9.81  328.32    9.94  343.62   10.17  340.17   10.09
  332.59    9.96  305.18    9.58  330.05    9.95  321.67    9.85  309.25    9.63
  334.51   10.03  327.69    9.93  299.18    9.48  319.67    9.76  312.86    9.66
  304.14    9.55  309.32    9.61  321.57    9.84  311.39   11.76  327.02   12.05
  332.39   12.18  320.47   12.01  305.31   11.69  310.07   11.73  285.12   11.22
  306.54   11.68  334.22   12.24  311.52   11.81  295.95   11.48  321.82   12.04
  285.29   11.29  311.76   11.81  300.69   11.59  319.81   11.94  327.28   12.08
  290.99   11.40  297.64   11.49  311.85   11.75  299.94   11.58  308.27   11.73
  323.06    9.82  297.46    9.40  322.67    9.83  305.34    9.58  289.32    9.25
  319.84    9.78  306.16    9.54  311.37    9.67  310.53    9.62  314.90    9.69
  309.60    9.58  295.51    9.39  304.78    9.52  288.47    9.30  304.28    9.52
  312.19    9.66  298.41    9.43  299.92    9.47  291.65    9.34  316.30    9.74
  313.16    9.63  300.07    9.47  310.81    9.64  303.97    9.54  308.70    9.61
  300.00    9.48  310.47    9.62  294.60    9.35  298.10    9.40  285.20    9.21
  300.63    9.49  303.83   11.65  337.29   12.33  302.02   11.62  295.43   11.49
  301.10   11.63  306.93   11.80  307.07   11.77  313.66   11.84  304.97   11.64
  317.73   11.93  305.51   11.74  290.79   11.45  311.09   11.81  296.01   11.59
  278.81   11.20  303.66   11.70  309.17   11.80  289.38   11.39  307.65   11.75
  301.19   11.64  278.80   11.16  312.33   11.80  303.02   11.68  296.83    9.60
  300.75    9.68  298.81    9.60  296.69    9.62  293.79    9.58  294.68    9.53
  308.97    9.80  271.32    9.18  300.63    9.69  281.03    9.35  308.40    9.75
  279.77    9.33  296.05    9.57  312.41    9.84  295.06    9.59  303.85    9.72
  310.42    9.82  286.54    9.44  300.73    9.68  296.47    9.61  302.65    9.70
  287.48    9.44  285.95    9.45  280.29    9.33  298.81    9.64  293.61    9.57
  288.18    9.49  269.23    9.14  288.85    9.45  280.95    9.28  278.72    9.32
  297.22    9.61  295.76   11.84  306.75   12.03  295.27   11.78  302.61   11.97
  298.51   11.87  300.49   11.99  303.20   11.97  269.90   11.29  273.23   11.30
  269.95   11.31  311.00   12.17  301.94   11.94  293.82   11.79  291.95   11.81
  284.34   11.60  297.69   11.91  267.44   11.26  273.01   11.35  279.27   11.48
  268.97   11.28  261.05   11.07  298.46    9.72  285.15    9.55  308.22    9.91
  289.04    9.58  295.43    9.69  292.66    9.70  266.45    9.20  297.85    9.75
  308.03    9.91  277.24    9.39  288.04    9.58  314.50   10.02  281.81    9.45
  288.40    9.58  284.52    9.51  281.10    9.50  297.53    9.73  290.15    9.61
  301.94    9.81  276.75    9.43  299.51    9.75  283.81    9.52  309.38    9.95
  289.47    9.59  303.36    9.84  305.33    9.86  302.93    9.85  311.75   10.00
  305.43    9.88  300.46    9.73  297.04    9.69  321.85   10.11  306.98    9.91
  299.67    9.76  284.74   11.82  309.72   12.36  304.51   12.25  284.75   11.85
  275.83   11.70  282.42   11.81  266.97   11.45  249.69   11.05  271.16   11.58
  283.21   11.82  289.38   11.94  281.00   11.77  292.63   12.07  292.64   12.04
  276.25   11.72  293.56   12.03  278.50   11.69  286.30   11.86  268.99   11.50
  287.51   11.87  293.50    9.85  284.04    9.73  280.59    9.62  294.88    9.90
  279.25    9.64  285.09    9.73  294.01    9.89  291.45    9.82  294.82    9.89
  279.30    9.62  284.69    9.72  282.86    9.69  262.72    9.30  277.33    9.58
  293.68    9.89  269.68    9.47  270.04    9.46  279.34    9.62  285.67    9.76
  276.67    9.60  280.75    9.62  279.41    9.63  263.47    9.37  276.29    9.57
  287.78    9.79  289.13    9.80  280.56    9.67  272.45    9.53  258.82    9.27
  275.96    9.51  267.92    9.43  273.90    9.51  269.07    9.45  275.56    9.56
  283.83   11.82  295.29   12.10  293.54   12.04  286.85   11.98  296.46   12.10
  293.73   12.04  298.07   12.07  298.29   12.16  297.48   12.17  293.69   12.04
  281.66   11.81  294.95   12.14  274.72   11.66  304.48   12.32  295.19   12.10
  280.70   11.77  310.44   12.38  281.90   11.81  259.86   11.30  273.99   11.61
  261.19   11.40  262.49    9.23  267.37    9.31  281.92    9.57  278.07    9.55
  250.70    9.01  281.03    9.54  267.43    9.31  262.62    9.23  273.76    9.46
  265.92    9.30  270.22    9.32  270.65    9.38  273.53    9.40  276.71    9.50
  270.70    9.37  264.38    9.27  279.56    9.52  261.65    9.24  269.06    9.34
  264.64    9.28  252.65    9.05  256.24    9.11  261.47    9.24  264.33    9.27
  264.35    9.28  264.74    9.29  279.34    9.54  257.54    9.13  254.39    9.06
  264.44    9.24  253.91    9.09  246.51    8.94  245.70   10.96  267.06   11.38
  255.14   11.11  256.55   11.18  254.89   11.19  254.00   11.14  281.21   11.67
  247.04   10.91  250.49   11.03  256.15   11.19  252.00   11.09  259.78   11.23
  260.16   11.31  238.69   10.78  262.56   11.32  248.13   11.00  250.77   11.04
  241.80   10.85  263.45   11.33  264.74   11.32  256.17   11.13  238.23    8.72
  252.26    8.98  274.96    9.38  253.63    8.97  255.74    9.05  241.91    8.82
  263.32    9.13  262.44    9.18  261.05    9.12  269.88    9.31  257.79    9.05
  269.47    9.28  244.93    8.83  243.52    8.81  252.33    8.97  257.47    9.10
  259.20    9.09  248.31    8.91  249.73    8.94  252.10    8.99  253.02    8.98
  255.72    9.06  269.10    9.27  268.97    9.28  245.32    8.84  274.52    9.38
  249.06    8.95  253.18    9.02  250.74    8.94  234.05    8.59  240.78    8.73
  240.53    8.76  236.14    8.71  247.03   10.71  248.35   10.74  243.89   10.66
  235.28   10.47  230.05   10.36  253.31   10.90  249.31   10.79  254.76   10.87
  231.02   10.33  260.61   11.04  218.34   10.09  243.79   10.66  235.40   10.48
  240.93   10.65  246.75   10.75  245.24   10.73  267.78   11.18  236.45   10.47
  264.67   11.09  277.13   11.35  263.06   11.04  259.36   10.98  264.47    9.14
  263.46    9.10  242.89    8.76  254.52    8.98  237.28    8.65  232.60    8.58
  235.39    8.59  228.79    8.50  232.44    8.55  224.43    8.44  224.41    8.38
  238.21    8.65  217.15    8.25  227.47    8.48  232.97    8.57  238.10    8.67
  243.11    8.74  240.21    8.72  209.48    8.14  238.08    8.66  240.51    8.69
  233.04    8.58  217.10    8.28  234.93    8.63  228.48    8.49  226.63    8.46
  244.71    8.80  237.63    8.66  237.71    8.63  246.85    8.80  241.70    8.73
  239.35    8.66  230.62    8.54  228.04   10.37  220.25   10.18  233.77   10.52
  234.88   10.59  244.06   10.76  236.19   10.54  254.66   10.92  256.23   11.00
  275.14   11.43  255.41   11.01  270.94   11.31  292.10   11.82  259.50   11.09
  238.63   10.64  249.73   10.88  227.71   10.37  218.02   10.15  227.69   10.38
  211.72    9.98  220.35   10.18  220.42    8.29  220.37    8.29  228.17    8.44
  219.42    8.25  229.05    8.46  223.00    8.36  219.95    8.25  202.59    7.97
  226.54    8.40  233.68    8.56  219.13    8.24  218.82    8.26  237.56    8.59
  230.27    8.47  230.46    8.47  254.81    8.94  226.59    8.40  240.55    8.66
  239.74    8.66  238.92    8.65  226.77    8.40  241.20    8.69  221.27    8.30
  213.82    8.18  227.68    8.42  223.29    8.36  225.26    8.41  227.07    8.44
  215.83    8.20  199.86    7.85  215.89    8.17  219.56    8.27  206.38    8.05
  216.83   10.07  227.52   10.31  219.17   10.14  213.82   10.01  205.69    9.83
  209.61    9.95  215.66   10.07  218.09   10.09  191.11    9.43  230.26   10.41
  215.04   10.05  207.35    9.86  205.95    9.83  195.12    9.61  196.97    9.63
  203.31    9.80  209.87    9.93  209.97    9.90  204.22    9.77  185.31    9.31
  193.90    9.51  202.47    7.94  206.10    8.05  205.39    7.99  215.23    8.21
  217.06    8.25  207.68    8.06  202.71    7.98  213.49    8.16  216.59    8.23
  202.33    7.95  197.31    7.85  203.05    7.97  205.39    7.98  205.53    8.01
  221.22    8.33  214.98    8.21  224.51    8.37  208.36    8.06  232.11    8.54
  208.28    8.09  216.39    8.20  214.22    8.18  202.41    7.98  211.05    8.12
  206.23    8.05  202.09    7.95  209.13    8.10  202.14    7.97  203.89    7.98
  196.75    7.80  200.87    7.93  222.00    8.31  216.37    8.23  203.44    7.97
  193.21    9.41  213.97    9.93  209.74    9.82  215.73   10.03  214.31    9.93
  216.88    9.98  190.57    9.31  204.77    9.72  206.85    9.79  207.66    9.77
  207.33    9.77  202.40    9.70  204.10    9.70  198.05    9.58  210.10    9.85
  202.03    9.63  214.53    9.93  211.28    9.86  185.63    9.21  205.86    8.20
  216.19    8.45  205.57    8.22  210.08    8.29  216.79    8.43  186.20    7.85
  210.85    8.32  204.13    8.20  204.88    8.21  205.60    8.21  188.30    7.87
  197.25    8.06  200.51    8.09  195.12    8.00  210.81    8.31  220.08    8.53
  217.59    8.45  214.49    8.39  194.01    7.99  208.18    8.31  210.73    8.30
  205.13    8.22  223.62    8.59  208.09    8.26  217.36    8.46  217.93    8.46
  211.36    8.35  223.61    8.60  221.32    8.54  203.66    8.13  215.00    8.38
  208.20    8.26  185.01    7.81  211.62    8.33  192.02    9.90  213.93   10.48
  204.00   10.23  189.42    9.86  214.68   10.53  209.04   10.36  191.95    9.90
  208.91   10.30  201.26   10.18  183.74    9.71  201.02   10.15  207.69   10.32
  196.20   10.08  201.91   10.20  205.70   10.31  205.29   10.26  209.12   10.33
  197.18   10.04  181.08    9.62  194.12    9.94  214.25   10.47  212.22    8.43
  211.56    8.39  212.13    8.42  214.89    8.49  208.96    8.35  201.14    8.21
  224.12    8.63  205.92    8.30  203.58    8.24  208.15    8.37  192.30    7.98
  189.76    7.95  200.78    8.17  192.71    8.04  190.02    7.97  191.01    7.99
  201.97    8.20  190.09    7.98  176.66    7.70  190.49    7.97  186.93    7.88
  189.25    7.96  176.83    7.69  193.79    8.07  191.29    7.99  179.80    7.76
  188.90    7.95  185.54    7.88  177.40    7.68  171.12    7.54  199.29    8.16
  206.36    8.28  197.05    8.13  206.23   10.32  202.38   10.22  190.00    9.93
  200.58   10.25  209.39   10.44  203.87   10.26  196.68   10.05  202.41   10.24
  203.82   10.31  194.25   10.06  192.11    9.97  198.24   10.20  190.64    9.95
  202.97   10.28  210.54   10.46  219.22   10.66  198.18   10.14  199.41   10.18
  173.93    9.47  199.47   10.14  208.56   10.42  197.45    8.19  190.89    8.07
  200.91    8.24  213.31    8.54  206.28    8.40  220.55    8.63  233.88    8.93
  293.89   10.00  394.73   11.62  535.46   13.51  695.41   15.32  926.12   17.77
 1116.21   19.45 1226.82   20.42 1272.03   20.85 1192.68   20.16 1001.68   18.46
  790.36   16.41  598.59   14.30  403.41   11.74  305.06   10.19  273.24    9.63
  206.26    8.40  199.64    8.24  195.08    8.16  185.30    7.96  187.68    8.02
  191.22    8.07  185.50    7.92  197.06    8.13  188.36    8.02  185.32    7.95
  189.63    9.59  178.67    9.29  186.19    9.46  184.14    9.45  191.39    9.62
  197.80    9.84  183.64    9.42  180.10    9.32  194.51    9.64  194.33    9.70
  195.91    9.77  210.48   10.08  195.60    9.73  221.49   10.41  188.32    9.55
  205.19   10.00  204.76    9.97  204.58    9.94  221.08   10.33  209.44   10.07
  224.84   10.39  245.85   10.88  281.87    9.47  289.75    9.61  303.22    9.80
  340.87   10.41  348.46   10.56  329.05   10.22  308.97    9.90  290.24    9.62
  298.86    9.73  341.21   10.45  414.36   11.44  523.37   12.89  691.10   14.79
  865.21   16.57  996.31   17.84 1010.42   17.94  962.57   17.48  906.13   16.96
  744.57   15.45  589.27   13.69  454.19   12.00  344.66   10.48  271.08    9.28
  274.79    9.36  283.08    9.48  327.25   10.22  396.09   11.25  517.71   12.86
  716.39   15.06  847.31   16.31  976.53   17.62 1064.41   18.38 1020.72   18.04
  930.38   21.02  758.00   18.94  612.87   17.09  503.86   15.48  389.55   13.70
  278.51   11.51  240.75   10.69  226.55   10.32  203.04    9.84  202.74    9.86
  213.18   10.06  199.03    9.73  204.84    9.92  234.73   10.57  244.46   10.82
  280.60   11.57  340.23   12.71  359.86   13.07  409.11   13.95  404.46   13.82
  414.01   14.00  425.62   11.76  432.33   11.85  446.24   12.01  470.05   12.35
  573.17   13.69  635.24   14.34  702.10   15.08  699.30   15.08  666.50   14.68
  601.91   14.02  491.10   12.59  402.10   11.41  330.31   10.33  282.99    9.57
  230.88    8.68  208.39    8.23  188.89    7.82  195.77    7.97  185.45    7.79
  179.86    7.64  186.51    7.77  182.93    7.72  188.17    7.81  178.88    7.63
  192.34    7.90  175.83    7.57  183.09    7.73  189.11    7.85  178.96    7.60
  178.13    7.55  170.05    7.43  170.47    7.43  202.36    8.11  172.52    9.12
  190.12    9.55  173.12    9.15  187.14    9.50  193.97    9.74  195.79    9.72
  190.80    9.59  178.37    9.22  179.42    9.31  183.34    9.44  180.65    9.33
  182.63    9.39  197.12    9.81  193.24    9.66  170.71    9.11  189.33    9.57
  172.37    9.11  173.90    9.15  175.70    9.21  159.65    8.75  179.08    9.27
  186.79    7.80  176.33    7.57  185.63    7.75  179.34    7.63  192.08    7.93
  173.45    7.50  180.53    7.65  180.01    7.65  192.99    7.91  183.14    7.74
  182.13    7.67  180.30    7.65  179.84    7.63  179.20    7.62  184.73    7.76
  180.58    7.67  175.43    7.54  187.17    7.79  180.04    7.68  176.10    7.56
  181.80    7.68  175.91    7.57  181.83    7.68  179.02    7.64  189.57    7.84
  181.19    7.68  186.18    7.80  192.20    7.92  181.05    7.65  187.25    7.75
  198.44    8.03  207.58    8.21  201.55    8.10  207.12   10.17  222.26   10.51
  251.91   11.23  291.72   12.07  304.62   12.42  299.67   12.23  301.90   12.27
  283.02   11.82  261.95   11.45  228.16   10.72  231.50   10.75  217.66   10.44
  209.20   10.28  194.63    9.87  191.91    9.83  181.03    9.53  175.53    9.36
  177.61    9.41  185.96    9.64  188.68    9.68  193.92    9.82  188.20    8.00
  207.89    8.41  174.86    7.69  205.57    8.36  182.75    7.91  193.60    8.10
  197.62    8.18  201.54    8.28  198.79    8.20  190.51    8.07  189.47    8.00
  193.99    8.11  169.82    7.58  189.79    8.02  183.30    7.91  168.44    7.57
  186.18    7.95  197.45    8.18  192.06    8.11  181.12    7.85  196.57    8.16
  172.05    7.66  182.70    7.88  177.00    7.77  181.97    7.86  184.38    7.93
  195.40    8.17  188.72    8.03  194.08    8.10  194.49    8.08  193.27    8.10
  203.87    8.32  206.02    8.38  223.11   10.65  230.39   10.80  240.72   11.08
  280.79   11.95  316.39   12.77  358.06   13.49  364.86   13.62  398.87   14.16
  388.65   14.08  414.43   14.58  367.85   13.67  318.97   12.75  277.87   11.96
  278.20   11.91  215.44   10.51  207.33   10.29  193.98    9.92  186.96    9.75
  189.37    9.82  176.47    9.45  175.70    9.43  190.69    8.01  180.22    7.78
  183.83    7.84  191.06    8.01  175.86    7.71  187.97    7.94  177.87    7.72
  178.64    7.75  176.36    7.68  183.53    7.88  178.22    7.71  168.58    7.52
  173.84    7.62  182.86    7.83  183.16    7.86  163.42    7.41  168.57    7.52
  173.67    7.63  183.37    7.88  176.30    7.69  165.45    7.44  174.40    7.66
  186.92    7.92  197.49    8.16  162.71    7.39  172.11    7.61  160.69    7.37
  160.53    7.36  170.41    7.55  166.02    7.42  176.56    7.70  173.31    7.62
  171.28    7.59  173.17    9.36  173.54    9.36  165.64    9.17  177.88    9.49
  183.79    9.71  176.84    9.47  191.88    9.86  177.90    9.44  179.88    9.56
  182.43    9.66  191.85    9.85  182.76    9.63  196.35   10.03  174.62    9.42
  221.79   10.65  180.11    9.57  188.71    9.77  198.92   10.03  174.47    9.41
  196.47    9.95  179.08    9.50  182.31    7.76  192.49    7.97  166.73    7.40
  171.79    7.53  183.32    7.80  187.55    7.86  195.72    8.02  189.30    7.91
  197.51    8.06  208.44    8.32  200.91    8.11  191.21    7.93  200.91    8.12
  193.05    7.97  192.45    7.98  191.85    7.96  184.29    7.79  170.54    7.49
  179.07    7.71  173.12    7.56  162.15    7.30  170.60    7.51  184.21    7.79
  169.78    7.50  166.37    7.40  184.88    7.82  181.00    7.75  171.55    7.54
  185.72    7.81  196.23    7.99  199.10    8.10  196.52    8.04  202.24    8.17
  202.99    9.85  205.09    9.88  191.23    9.57  156.31    8.64  185.95    9.49
  162.51    8.81  180.51    9.28  181.51    9.26  178.78    9.26  182.68    9.38
  173.32    9.10  147.48    8.40  170.22    9.07  161.84    8.80  187.03    9.50
  205.88    9.94  210.93   10.03  231.08   10.50  230.59   10.50  287.96   11.70
  334.71   10.36  463.20   12.25  568.25   13.54  729.16   15.31  900.89   17.03
 1182.43   19.61 1555.78   22.38 2069.35   25.87 2619.94   29.09 3047.64   31.33
 3437.98   33.31 3610.03   34.17 3480.38   33.41 3123.27   31.72 2634.77   29.13
 2110.98   26.19 1575.42   22.53 1113.56   18.95  838.67   16.46  652.42   14.57
  603.50   13.93  609.84   14.04  688.01   14.94  757.91   15.62  844.14   16.52
  886.75   16.92  904.57   17.13  814.73   16.27  726.25   15.34  604.80   13.89
  474.19   12.33  388.68   11.18  322.91   10.23  260.99    9.17  230.89   10.51
  206.01    9.95  199.59    9.79  199.89    9.80  185.98    9.48  200.00    9.81
  218.38   10.22  200.78    9.77  238.98   10.73  278.64   11.57  310.57   12.21
  343.21   12.84  393.96   13.82  433.45   14.46  433.47   14.48  411.70   14.06
  387.19   13.60  342.84   12.80  306.92   12.12  263.73   11.22  226.43    8.53
  195.30    7.96  199.25    8.00  178.25    7.59  169.72    7.41  179.57    7.62
  173.67    7.50  173.71    7.48  170.72    7.42  166.69    7.33  171.13    7.43
  178.01    7.58  170.43    7.39  183.56    7.69  173.02    7.49  165.03    7.31
  162.18    7.23  164.58    7.28  194.85    7.95  192.36    7.90  198.72    7.99
  201.50    8.07  233.02    8.70  233.72    8.68  250.87    9.02  239.68    8.80
  275.61    9.45  303.04    9.91  370.05   10.93  399.62   11.29  410.30   11.51
  400.93   11.35  399.38   11.36  377.54   11.04  312.66   12.36  262.76   11.37
  240.97   10.88  212.29   10.27  188.44    9.62  199.55    9.89  168.88    9.05
  170.27    9.15  156.87    8.81  163.24    8.95  152.90    8.67  170.79    9.21
  165.67    9.02  169.26    9.15  172.94    9.23  165.11    8.99  176.95    9.31
  183.70    9.50  188.31    9.58  161.22    8.87  185.25    7.88  177.50    7.71
  168.12    7.48  163.88    7.40  170.79    7.58  169.54    7.52  183.17    7.82
  159.84    7.32  171.67    7.56  167.99    7.52  177.18    7.67  197.29    8.12
  189.80    7.95  213.83    8.45  234.51    8.88  281.68    9.71  312.44   10.21
  336.61   10.60  374.71   11.24  396.02   11.51  382.97   11.30  390.00   11.44
  350.97   10.83  329.97   10.52  300.41   10.02  287.50    9.82  279.08    9.69
  299.30   10.03  326.82   10.43  331.06   10.45  392.18   11.45  402.00   11.59
  396.85   11.53  403.92   14.26  353.24   13.31  329.00   12.89  287.32   12.03
  262.47   11.58  224.79   10.64  205.45   10.17  169.47    9.19  174.37    9.39
  206.86   10.25  204.92   10.16  214.09   10.40  216.72   10.51  229.23   10.76
  269.40   11.70  286.43   12.04  268.21   11.62  301.56   12.32  304.70   12.40
  333.21   12.92  325.14   12.77  354.79   11.13  363.78   11.27  364.39   11.25
  334.69   10.80  332.89   10.81  296.06   10.15  254.25    9.40  230.55    8.97
  203.97    8.42  201.79    8.42  168.76    7.65  180.60    7.93  175.29    7.80
  174.57    7.79  180.72    7.96  165.85    7.61  163.55    7.54  160.83    7.48
  162.64    7.56  171.89    7.74  153.36    7.30  157.31    7.42  170.04    7.70
  163.07    7.55  159.89    7.46  162.61    7.54  160.18    7.49  171.23    7.74
  172.08    7.73  173.42    7.72  160.67    7.48  173.33    7.77  191.12    8.17
  178.14    9.79  206.43   10.52  202.52   10.46  193.91   10.22  186.62   10.09
  168.04    9.51  185.64    9.99  180.56    9.81  190.65   10.15  178.69    9.85
  187.23   10.04  175.90    9.74  171.10    9.66  176.43    9.76  180.88    9.91
  168.18    9.54  165.08    9.42  192.59   10.18  207.00   10.56  191.68   10.13
  198.39   10.31  206.07   10.57  208.33    8.44  210.48    8.48  217.11    8.62
  247.54    9.25  270.13    9.60  304.50   10.20  374.58   11.31  450.88   12.41
  604.48   14.43  802.02   16.58 1047.04   18.84 1359.65   21.58 1630.85   23.58
 1935.59   25.81 2144.32   27.09 2225.49   27.62 2307.44   28.07 2309.23   28.20
 2271.13   27.88 2242.80   27.74 2324.26   28.19 2336.17   28.25 2338.47   28.39
 2243.28   27.73 2144.57   27.13 1888.22   25.48 1693.55   24.12 1364.50   21.57
 1092.61   19.28  828.25   16.79  652.79   14.97  473.71   12.72  378.14   13.90
  302.71   12.39  256.28   11.39  220.01   10.59  230.68   10.89  204.40   10.22
  224.31   10.66  217.13   10.46  251.89   11.31  243.42   11.16  250.85   11.32
  244.85   11.15  246.44   11.26  220.15   10.59  242.00   11.12  210.11   10.35
  210.99   10.36  206.13   10.24  180.85    9.60  178.73    9.51  175.96    9.43
  173.77    7.62  163.60    7.40  153.23    7.16  147.82    7.01  164.12    7.41
  146.91    7.03  156.84    7.21  150.93    7.12  177.45    7.69  184.58    7.88
  174.75    7.62  184.09    7.84  203.64    8.24  194.46    8.05  210.97    8.39
  206.19    8.33  188.83    7.94  185.60    7.88  181.93    7.81  176.54    7.70
  173.29    7.61  165.53    7.45  157.67    7.26  149.11    7.07  154.03    7.17
  163.91    7.41  158.05    7.29  145.43    7.00  150.55    7.09  165.04    7.38
  159.80    7.28  144.21    6.94  142.88    6.93  140.57    8.16  148.10    8.37
  135.47    8.02  152.45    8.51  138.89    8.13  154.44    8.59  161.80    8.77
  160.35    8.71  150.24    8.41  138.78    8.14  149.80    8.44  141.59    8.20
  147.77    8.38  139.58    8.18  157.02    8.66  157.55    8.69  155.50    8.60
  146.03    8.31  139.63    8.13  181.05    9.26  162.39    8.76  162.07    7.15
  180.96    7.59  189.98    7.73  196.63    7.90  231.47    8.57  256.77    9.02
  288.41    9.57  322.90   10.10  355.91   10.61  383.39   11.01  408.64   11.37
  392.40   11.15  380.33   10.93  338.44   10.34  313.83    9.98  276.94    9.37
  250.66    8.90  212.81    8.20  198.34    7.95  184.12    7.65  175.30    7.43
  158.91    7.09  160.99    7.16  154.54    6.99  150.93    6.93  149.15    6.87
  152.89    6.97  155.05    7.02  162.71    7.18  145.38    6.74  154.24    6.99
  155.70    7.01  155.72    7.02  165.44    7.23  164.28    8.83  155.90    8.63
  182.21    9.32  208.26   10.03  189.34    9.50  247.79   10.87  260.36   11.08
  237.70   10.66  259.24   11.17  263.47   11.20  254.67   11.03  245.61   10.89
  261.83   11.18  230.88   10.54  227.46   10.44  222.37   10.29  212.47   10.06
  206.70    9.93  201.51    9.77  209.87    9.98  246.83   10.89  249.08    8.83
  288.80    9.50  340.81   10.33  393.72   11.16  474.50   12.17  597.08   13.66
  732.79   15.14  881.14   16.60  922.49   17.05  995.72   17.67 1069.74   18.22
  987.37   17.59  903.97   16.79  845.29   16.31  725.91   15.07  607.16   13.80
  486.42   12.33  392.53   11.12  319.58   10.00  253.03    8.91  215.20    8.20
  185.89    7.62  180.30    7.54  169.01    7.28  147.25    6.80  154.07    6.96
  162.52    7.15  147.59    6.79  145.09    6.72  162.55    7.11  141.90    6.67
  147.46    6.79  136.27    7.95  137.06    7.94  143.80    8.13  153.37    8.42
  168.23    8.85  143.22    8.15  146.05    8.19  142.57    8.07  156.62    8.49
  150.29    8.35  168.22    8.83  173.25    8.93  178.74    9.13  186.75    9.29
  182.93    9.20  211.86    9.90  204.76    9.72  194.36    9.47  220.42   10.09
  212.64    9.88  192.63    9.40  185.13    9.26  181.68    7.58  159.07    7.11
  161.33    7.12  155.41    7.03  141.22    6.70  135.66    6.53  147.71    6.84
  140.42    6.66  145.34    6.80  134.91    6.54  138.41    6.59  130.93    6.44
  137.40    6.58  123.89    6.26  129.01    6.40  133.07    6.49  127.13    6.34
  142.15    6.71  126.99    6.35  132.11    6.48  144.03    6.75  138.23    6.60
  133.25    6.51  129.33    6.40  127.47    6.36  138.91    6.64  140.74    6.69
  133.50    6.50  148.23    6.83  153.87    6.93  145.62    6.80  157.09    7.05
  140.93    8.19  157.39    8.64  144.52    8.26  149.85    8.44  139.49    8.14
  140.35    8.21  138.53    8.11  138.88    8.11  134.65    7.95  135.11    8.02
  110.04    7.26  140.75    8.17  130.23    7.87  141.11    8.23  136.87    8.07
  115.31    7.43  124.80    7.71  129.31    7.83  134.58    7.99  120.13    7.55
  124.04    7.65  130.51    6.40  125.81    6.31  136.83    6.57  143.89    6.72
  148.94    6.85  155.87    7.04  145.77    6.77  152.99    6.95  168.61    7.30
  174.10    7.40  190.56    7.75  202.97    8.01  209.44    8.10  215.99    8.25
  242.06    8.73  242.76    8.78  251.13    8.90  253.24    8.94  243.73    8.77
  234.89    8.65  222.43    8.36  203.26    8.02  192.81    7.82  174.93    7.42
  171.06    7.35  145.49    6.78  158.22    7.08  155.62    7.03  136.17    6.57
  135.66    6.50  135.94    6.53  126.35    6.30  140.27    6.66  133.88    6.49
  129.39    7.89  129.02    7.90  131.32    7.96  132.97    8.02  135.62    8.12
  139.33    8.21  125.98    7.78  129.75    7.88  128.48    7.89  130.04    7.93
  143.94    8.34  148.77    8.48  148.23    8.50  141.67    8.29  138.74    8.22
  136.32    8.12  135.48    8.07  129.91    7.91  142.14    8.28  129.09    7.87
  130.92    6.45  156.09    7.07  135.36    6.55  139.03    6.67  144.00    6.79
  149.01    6.90  143.09    6.77  146.15    6.82  165.80    7.27  170.73    7.37
  178.00    7.54  194.06    7.87  197.19    7.90  216.35    8.30  223.76    8.46
  234.34    8.66  255.48    9.02  262.20    9.13  298.39    9.78  304.13    9.87
  354.60   10.61  392.41   11.19  437.03   11.84  458.00   12.08  495.07   12.59
  527.53   12.98  561.24   13.41  573.50   13.55  553.50   13.29  571.27   13.42
  591.77   13.74  620.05   14.03  664.43   14.56  739.93   15.36  814.42   19.45
  903.08   20.55  922.65   20.75 1016.42   21.92  940.72   20.95  996.74   21.55
  967.69   21.13  965.35   21.25  931.28   20.93  847.96   19.88  806.49   19.41
  726.69   18.52  692.44   17.99  615.26   17.01  555.40   16.13  493.13   15.15
  414.63   13.90  374.39   13.22  314.84   12.08  280.86    9.27  257.73    8.92
  235.52    8.51  190.57    7.64  201.14    7.86  190.47    7.69  202.33    7.88
  219.79    8.23  238.33    8.57  231.49    8.43  257.53    8.90  274.09    9.19
  288.33    9.39  299.36    9.59  301.75    9.62  306.77    9.75  295.60    9.53
  281.40    9.30  269.71    9.11  253.58    8.87  237.44    8.53  230.90    8.44
  201.95    7.90  176.12    7.35  172.06    7.28  154.80    6.90  143.79    6.67
  138.75    6.56  154.11    6.90  146.89    6.68  138.07    6.49  132.10    6.36
  130.00    6.34  143.76    6.65  138.96    7.96  154.24    8.40  141.76    8.05
  136.02    7.89  148.25    8.26  128.30    7.67  160.32    8.54  138.31    7.92
  139.14    7.99  147.44    8.22  140.46    8.02  138.63    7.96  138.10    7.99
  134.19    7.85  147.09    8.24  138.28    7.96  146.52    8.17  131.25    7.73
  151.51    8.32  163.64    8.62  135.04    7.85  138.72    6.52  140.91    6.56
  150.02    6.78  132.07    6.38  149.05    6.75  146.00    6.70  145.52    6.66
  130.27    6.32  141.45    6.57  145.22    6.69  147.75    6.70  137.36    6.48
  133.20    6.37  149.65    6.78  133.81    6.40  149.68    6.78  148.27    6.73
  148.17    6.75  146.91    6.72  140.70    6.56  148.82    6.74  134.21    6.42
  152.02    6.83  148.12    6.75  146.31    6.69  157.49    6.95  133.89    6.41
  151.42    6.81  163.88    7.07  148.98    6.74  161.00    7.02  150.82    6.78
  150.26    6.79  147.98    8.18  137.87    7.89  146.36    8.16  153.15    8.38
  152.78    8.35  155.45    8.38  138.93    7.90  153.65    8.35  146.51    8.18
  156.85    8.46  150.52    8.26  168.52    8.80  189.21    9.28  180.44    9.07
  181.15    9.08  179.69    9.03  192.14    9.34  195.96    9.44  203.35    9.59
  205.78    9.64  213.76    8.13  214.01    8.14  225.78    8.36  228.16    8.38
  209.90    8.07  234.65    8.55  235.73    8.51  220.00    8.27  242.69    8.66
  280.10    9.34  297.39    9.56  343.30   10.30  378.56   10.81  429.18   11.51
  455.80   11.87  497.57   12.45  520.69   12.68  502.43   12.47  573.77   13.34
  578.20   13.40  548.30   13.02  548.88   13.06  491.05   12.32  473.32   12.12
  399.98   11.11  368.63   10.70  338.38   10.26  305.39    9.76  264.52    9.04
  227.64    8.34  200.71    7.85  190.66    7.68  185.17    7.59  172.65    9.00
  160.41    8.67  170.56    8.96  176.06    9.10  159.83    8.68  175.36    9.12
  157.55    8.62  163.63    8.76  179.73    9.16  184.37    9.34  174.41    9.07
  199.69    9.70  192.63    9.52  189.70    9.50  204.84    9.84  201.26    9.77
  188.07    9.42  207.51    9.86  213.47   10.01  203.42    9.78  186.24    9.34
  203.35    9.77  194.59    7.81  190.26    7.70  203.59    7.99  185.76    7.64
  175.30    7.40  176.99    7.45  167.22    7.21  161.47    7.11  160.94    7.09
  172.82    7.38  156.43    6.97  158.63    7.03  158.08    7.01  158.12    7.04
  157.56    7.02  147.18    6.79  175.36    7.39  163.51    7.16  159.72    7.08
  171.45    7.32  178.72    7.46  192.53    7.77  196.51    7.84  184.24    7.61
  210.63    8.11  223.48    8.37  236.40    8.61  251.61    8.87  248.17    8.79
  269.67    9.16  315.93    9.94  321.03    9.99  337.56   10.29  370.54   13.20
  390.80   13.55  417.04   14.03  416.91   14.09  451.62   14.63  442.34   14.41
  429.36   14.16  435.17   14.32  421.62   14.14  423.11   14.16  398.08   13.69
  375.03   13.38  306.25   12.03  323.39   12.37  295.12   11.81  257.91   11.03
  248.75   10.84  223.94   10.29  203.79    9.78  192.26    9.49  183.60    9.32
  156.68    6.94  166.39    7.17  163.27    7.07  184.48    7.55  175.34    7.36
  157.85    6.94  157.48    6.97  175.88    7.35  169.14    7.23  159.50    7.01
  176.69    7.34  177.55    7.40  174.66    7.32  184.99    7.54  184.44    7.55
  208.55    8.02  224.14    8.30  205.93    7.96  234.59    8.51  252.58    8.83
  241.29    8.62  231.36    8.43  250.46    8.80  223.52    8.29  238.94    8.58
  232.10    8.47  243.96    8.69  200.85    7.86  219.09    8.19  209.69    7.98
  186.31    7.58  162.90    7.08  153.52    8.33  166.35    8.65  168.42    8.69
  142.56    8.02  134.54    7.78  131.74    7.75  143.07    8.02  151.94    8.26
  136.60    7.80  142.12    8.01  165.15    8.66  149.67    8.20  150.55    8.24
  173.43    8.89  172.18    8.81  163.81    8.62  163.08    8.58  156.32    8.38
  167.18    8.67  155.36    8.36  165.50    8.60  159.46    8.45  159.84    7.04
  156.39    6.96  163.46    7.09  161.13    7.06  138.30    6.56  145.05    6.69
  133.28    6.41  135.41    6.48  139.32    6.55  136.98    6.53  141.10    6.59
  135.82    6.48  142.25    6.62  142.20    6.62  133.28    6.43  148.35    6.78
  144.15    6.67  151.00    6.83  138.97    6.58  150.01    6.81  142.21    6.62
  165.28    7.16  155.78    6.94  163.27    7.12  160.68    7.05  164.72    7.15
  177.54    7.43  186.68    7.62  188.65    7.62  221.59    8.22  236.82    8.56
  245.45    8.71  270.58    9.16  266.30   11.10  280.97   11.38  285.78   11.51
  305.86   11.90  340.31   12.63  347.46   12.68  349.92   12.72  338.13   12.44
  360.03   12.92  340.60   12.61  327.22   12.30  327.24   12.32  325.32   12.34
  311.93   12.02  333.63   12.48  369.77   13.11  364.00   12.97  387.28   13.38
  414.92   13.86  452.60   14.43  446.32   14.34  506.51   12.85  530.50   13.15
  542.90   13.27  552.90   13.42  555.25   13.49  566.68   13.57  543.13   13.28
  547.13   13.36  534.84   13.17  503.79   12.85  465.10   12.27  447.54   12.06
  399.40   11.38  403.05   11.44  365.05   10.93  359.03   10.82  357.17   10.77
  330.98   10.37  354.99   10.79  364.40   10.89  381.64   11.13  395.71   11.37
  398.66   11.39  406.24   11.52  428.48   11.81  408.60   11.55  424.59   11.79
  413.72   11.63  401.15   11.40  391.74   11.22  375.32   11.05  351.41   10.69
  350.81   10.70  306.61   12.56  296.76   12.33  299.42   12.43  258.48   11.54
  223.77   10.80  222.92   10.71  200.09   10.15  223.51   10.67  198.77   10.13
  215.46   10.58  191.83    9.93  198.06   10.11  211.47   10.50  220.74   10.67
  221.71   10.73  228.48   10.87  233.88   10.96  245.81   11.24  252.49   11.41
  274.34   11.85  286.78    9.67  283.41    9.66  308.53   10.06  300.25    9.90
  321.89   10.27  361.24   10.93  334.61   10.47  344.17   10.64  338.20   10.54
  337.54   10.51  328.10   10.38  322.53   10.30  318.56   10.19  312.03   10.11
  300.18    9.91  297.72    9.92  281.80    9.61  261.38    9.26  267.25    9.37
  244.60    9.00  245.03    8.95  215.33    8.41  211.72    8.36  207.44    8.24
  182.49    7.75  177.88    7.64  166.19    7.40  166.12    7.41  162.69    7.32
  159.88    7.20  156.68    7.14  160.16    7.24  174.52    7.58  164.44    7.34
  157.26    8.78  164.38    8.99  170.63    9.16  173.35    9.24  193.08    9.78
  197.09    9.85  182.18    9.45  195.05    9.75  209.86   10.18  202.36    9.98
  216.95   10.33  235.65   10.77  227.46   10.63  226.32   10.58  253.86   11.22
  249.13   11.08  239.76   10.83  245.52   10.97  229.17   10.60  228.26   10.56
  226.15   10.53  216.25    8.29  207.63    8.10  210.75    8.18  205.12    8.09
  187.11    7.70  183.45    7.64  175.07    7.43  178.49    7.53  185.50    7.66
  175.71    7.49  166.00    7.23  170.16    7.34  175.91    7.45  184.36    7.66
  197.67    7.92  197.36    7.92  202.31    8.00  224.88    8.46  238.22    8.71
  249.11    8.89  268.91    9.22  309.96    9.93  321.71   10.11  375.89   10.95
  388.53   11.10  435.49   11.77  497.98   12.59  566.94   13.42  659.96   14.43
  760.14   15.49  879.14   16.70  979.01   17.58 1112.76   18.82 1139.49   22.52
 1220.00   23.29 1331.30   24.39 1452.15   25.59 1520.97   26.12 1562.66   26.35
 1633.02   26.87 1775.39   28.13 1880.72   29.05 1974.84   29.75 2078.57   30.44
 2259.58   31.94 2466.23   33.21 2500.37   33.47 2574.09   33.94 2770.09   35.15
 2880.67   35.87 2914.67   36.10 2941.74   36.15 3085.91   37.00 3107.72   37.30
 3036.72   29.98 3075.18   30.25 3010.22   29.78 2943.69   29.61 2937.85   29.59
 2802.84   28.72 2683.99   28.23 2542.17   27.45 2389.55   26.68 2128.20   25.13
 1919.19   23.76 1740.73   22.74 1520.74   21.19 1365.18   20.11 1198.64   18.89
 1044.36   17.61  894.54   16.28  752.60   14.94  663.66   14.05  585.32   13.20
  497.99   12.15  440.30   11.41  393.04   10.82  338.95   10.02  328.01    9.87
  303.79    9.51  272.10    9.01  256.69    8.72  244.76    8.50  221.09    8.04
  223.25    8.15  213.67    7.96  197.76    9.35  181.93    8.95  187.83    9.08
  180.35    8.93  183.85    9.00  189.82    9.21  172.80    8.73  157.68    8.33
  174.82    8.73  178.15    8.87  164.49    8.55  155.01    8.26  184.16    9.02
  163.68    8.54  174.88    8.79  160.50    8.45  169.97    8.67  162.41    8.45
  146.19    8.02  157.52    8.34  153.39    8.20  134.01    6.50  131.54    6.47
  135.95    6.56  139.88    6.65  147.80    6.84  145.47    6.82  142.08    6.71
  143.29    6.75  141.54    6.70  143.66    6.74  145.55    6.79  149.35    6.89
  138.34    6.60  145.57    6.79  153.76    6.97  144.35    6.79  139.98    6.66
  153.10    6.97  157.71    7.07  150.67    6.94  140.83    6.67  141.07    6.69
  150.44    6.92  155.59    7.01  147.46    6.85  137.98    6.62  139.59    6.67
  165.67    7.27  139.73    6.67  151.71    6.90  149.86    6.87  150.05    6.88
  154.67    7.02  154.82    7.00  134.65    8.12  137.73    8.23  133.67    8.11
  130.92    8.03  139.04    8.29  139.36    8.28  128.24    7.92  139.38    8.24
  142.13    8.38  150.09    8.59  155.86    8.75  164.22    8.99  164.79    9.04
  150.14    8.61  168.98    9.15  151.56    8.64  140.84    8.30  163.10    8.94
  141.74    8.34  159.25    8.82  169.64    9.12  197.92    9.90  162.15    8.90
  162.16    8.95  173.93    9.30  167.06    9.09  184.35    9.57  150.42    8.58
  158.43    8.83  156.03    8.75  140.11    8.34  145.46    8.45  144.16    8.39
  147.30    8.50  143.70    8.44  148.86    8.57  151.69    8.64  155.09    8.72
  135.77    8.20  163.01    8.97  143.98    8.40  159.56    8.85  166.65    9.06
  165.11    8.99  168.89    9.15  173.72    9.25  176.26    9.33  178.36    9.37
  202.15    9.96  204.93    9.99  213.06   10.24  244.66   10.96  237.02   10.78
  253.07   11.17  175.85   13.99  208.52   15.25  200.41   14.94  199.04   15.05
  193.74   14.73  198.94   14.87  173.93   13.79  231.11   16.06  243.88   16.56
  242.30   16.45  234.70   16.20  223.63   15.97  214.00   15.48  220.79   15.77
  247.52   16.61  205.83   15.09  203.70   15.06  198.37   14.91  188.72   14.47
  193.41   14.66  215.88   15.62  196.95   14.85  187.86   14.54  186.82   14.46
  191.41   14.72  175.47   14.05  219.98   15.59  194.57   14.75  204.06   15.04
  198.86   15.03  179.68   14.16  202.79   14.99  179.16   14.16  179.21   14.17
  148.35   12.91  180.58   14.23  164.65   13.58  167.41   13.71  183.01   14.38
  182.81   14.27  200.37   15.02  181.56   14.35  166.24   13.62  185.94   14.52
  173.30   13.92  176.97   14.12  195.71   14.88  187.03   14.56  176.47   14.04
  178.28   14.09  202.29   14.99  199.42   14.95  194.06   14.80                