                                                                                
BANK 1 2459 492 CONST  202.500    5.000 0 0 ESD                                 
  786.91   26.94  787.95   26.92  759.19   26.46  711.04   25.54  686.51   25.19
  702.96   25.43  575.99   23.11  629.98   24.07  615.83   23.88  579.74   23.02
  607.40   23.70  543.99   22.21  560.13   22.75  555.38   22.64  530.39   22.14
  515.74   21.81  491.89   21.15  553.79   22.59  497.77   21.30  505.72   21.58
  486.04   21.17  485.24   21.02  452.34   20.41  445.37   20.22  471.66   20.78
  442.06   20.39  445.75   20.35  426.33   19.77  418.19   19.60  433.66   19.88
  422.13   19.55  407.95   19.34  409.75   19.42  428.97   19.89  427.36   19.82
  384.81   18.84  352.27   17.84  358.77   18.17  400.52   19.34  338.93   17.62
  377.47   18.66  368.46   18.47  365.94   18.32  356.93   18.05  379.18   18.68
  345.54   17.75  369.86   18.45  357.34   18.21  391.60   19.06  331.62   17.41
  338.86   17.59  353.23   18.03  355.05   12.80  379.12   13.18  338.21   12.44
  337.56   12.41  352.28   12.70  351.31   12.66  326.60   12.24  328.39   12.28
  331.92   12.37  341.37   12.51  316.55   12.06  305.19   11.76  290.37   11.60
  304.34   11.80  304.75   11.84  315.75   12.06  297.78   11.61  281.47   11.36
  300.57   11.70  281.50   11.39  267.03   11.06  252.07   10.69  303.00   11.78
  278.42   11.27  274.75   11.20  247.71   10.73  244.06   10.59  253.78   10.73
  265.11   11.02  259.60   10.84  248.88   10.63  240.65   10.49  266.28   11.05
  247.55   10.63  253.55   10.76  247.59   10.66  250.94   10.68  220.29   10.01
  241.96   10.60  246.96   10.66  247.42   10.67  238.81   10.49  242.22   10.51
  236.56   10.39  234.46   10.37  229.15   10.24  235.92   10.40  237.63   10.49
  242.60   10.58  227.64   10.18  237.85   10.41  213.71    9.87  229.47   10.26
  242.32    8.57  242.49    8.56  241.71    8.55  252.69    8.73  242.62    8.56
  230.30    8.33  255.08    8.80  237.53    8.47  229.46    8.33  233.49    8.39
  235.93    8.42  225.99    8.26  220.16    8.15  214.57    8.06  203.07    7.86
  198.08    7.72  217.86    8.09  216.92    8.08  216.89    8.10  207.93    7.92
  207.38    7.90  224.26    8.19  209.45    7.97  204.36    7.85  204.31    7.87
  204.18    7.89  204.63    7.87  196.03    7.69  203.40    7.81  195.33    7.68
  197.34    7.69  192.12    7.62  198.20    7.72  199.04    7.75  191.01    7.60
  189.45    7.57  193.59    9.26  199.23    9.50  188.81    9.28  199.81    9.48
  185.38    9.16  186.37    9.16  201.88    9.53  192.11    9.29  211.26    9.77
  196.19    9.37  192.53    9.34  202.52    9.58  206.87    9.66  201.43    9.50
  194.01    9.30  208.39    9.66  214.88    9.88  206.63    9.66  231.49   10.21
  224.45    8.22  237.08    8.43  246.68    8.60  263.51    8.89  277.46    9.14
  263.69    8.90  302.19    9.55  322.65    9.83  360.30   10.40  369.84   10.56
  405.29   11.03  476.02   11.95  567.37   13.08  665.32   14.10  782.52   15.31
  942.75   16.84 1105.20   18.21 1277.58   19.58 1344.04   19.98 1433.13   20.81
 1373.03   20.29 1229.39   19.20 1040.15   17.72  820.19   15.71  587.73   13.25
  426.82   11.35  308.28    9.63  252.12    8.68  208.71    7.92  204.14    7.81
  199.43    7.71  185.46    7.45  175.88    7.27  162.57    8.54  158.75    8.40
  185.94    9.16  183.45    9.05  175.47    8.87  174.23    8.88  170.67    8.72
  170.11    8.74  173.63    8.84  173.98    8.83  174.39    8.82  171.33    8.79
  184.99    9.09  173.73    8.81  171.05    8.76  148.07    8.14  173.77    8.79
  176.88    8.90  175.91    8.88  182.21    9.08  160.12    8.49  163.35    8.55
  164.82    7.02  172.50    7.17  170.45    7.13  175.82    7.23  172.92    7.20
  174.00    7.21  173.86    7.23  174.30    7.22  178.38    7.30  168.48    7.12
  161.73    6.95  169.57    7.10  166.54    7.06  169.74    7.12  162.80    6.98
  155.03    6.80  163.03    6.96  168.41    7.12  175.46    7.22  149.21    6.69
  181.43    7.37  177.48    7.28  170.47    7.15  160.81    6.92  171.67    7.15
  172.20    7.19  178.21    7.30  165.06    7.01  149.55    6.69  150.80    6.70
  163.97    6.97  160.37    8.49  168.50    8.72  176.41    8.93  171.55    8.77
  157.74    8.47  175.79    8.89  145.56    8.11  154.52    8.39  161.58    8.52
  145.57    8.11  164.92    8.64  159.89    8.50  159.03    8.45  162.58    8.59
  149.88    8.21  158.34    8.44  151.04    8.26  171.67    8.79  149.07    8.17
  159.22    8.47  165.88    8.66  170.78    8.82  146.33    8.14  168.88    7.25
  158.38    7.01  142.79    6.66  147.11    6.75  156.48    6.97  148.01    6.79
  161.40    7.09  153.08    6.91  150.08    6.84  143.75    6.67  159.73    7.09
  149.36    6.80  150.94    6.85  152.76    6.89  157.25    6.99  156.03    6.97
  153.82    6.90  153.71    6.92  149.45    6.83  159.44    7.03  144.81    6.72
  148.98    6.80  143.37    6.69  146.40    6.76  149.94    6.82  153.72    6.94
  153.67    6.91  156.56    6.97  149.34    6.81  146.88    6.75  144.64    6.69
  142.28    6.64  150.27    8.44  159.98    8.73  139.77    8.15  138.47    8.09
  160.04    8.71  150.98    8.49  164.95    8.89  157.36    8.65  145.16    8.30
  149.23    8.43  158.60    8.68  148.98    8.41  146.30    8.34  134.68    8.01
  158.06    8.67  152.23    8.51  143.79    8.27  129.93    7.82  134.80    7.97
  146.32    8.35  136.93    8.10  152.31    6.99  138.72    6.66  147.61    6.87
  140.65    6.69  145.53    6.82  142.92    6.74  144.35    6.80  137.77    6.64
  158.80    7.12  130.31    6.44  145.73    6.82  153.42    7.00  148.56    6.90
  151.60    6.96  159.52    7.14  156.98    7.06  163.66    7.22  147.10    6.85
  147.12    6.85  148.41    6.87  150.31    6.94  162.67    7.19  155.73    7.06
  156.28    7.07  170.36    7.39  171.49    7.43  173.63    7.43  172.81    7.44
  178.94    7.53  171.98    7.40  168.45    7.31  193.06    7.85  192.39    7.83
  191.46    7.82  212.52   10.26  258.22   11.32  310.95   12.31  366.65   13.51
  472.15   15.39  562.95   16.70  713.83   18.84  802.82   19.94  897.82   21.07
  942.69   21.58  863.13   20.70  731.81   18.99  613.01   17.48  453.60   15.04
  336.69   12.92  258.05   11.27  184.50    9.51  169.11    9.13  155.94    8.83
  152.88    8.71  153.22    7.14  152.68    7.13  157.28    7.23  158.29    7.24
  132.70    6.64  154.33    7.16  138.98    6.81  144.46    6.93  152.74    7.12
  150.78    7.06  150.68    7.10  136.11    6.71  144.02    6.94  151.06    7.10
  142.86    6.87  139.91    6.81  149.38    7.03  142.79    6.90  131.67    6.60
  150.16    7.04  140.82    6.86  150.72    7.06  145.28    6.96  140.54    6.85
  143.84    6.92  142.80    6.90  155.70    7.20  143.34    6.90  147.58    6.99
  147.35    6.99  156.18    7.18  156.03    7.19  141.81    6.86  148.51    7.03
  167.12    9.12  194.31    9.80  192.71    9.77  216.44   10.40  265.89   11.55
  349.17   13.18  442.21   14.81  593.08   17.20  823.67   20.23 1145.69   23.85
 1510.71   27.40 1987.19   31.46 2369.96   34.36 2733.50   36.89 2731.23   36.88
 2378.43   34.23 2091.75   32.12 1549.34   27.80 1113.52   23.62  682.08   18.45
  405.40   14.20  286.56    9.66  204.14    8.14  155.72    7.11  154.92    7.09
  150.52    7.00  144.02    6.85  164.54    7.32  150.30    6.99  142.42    6.81
  162.36    7.28  152.40    7.05  135.14    6.62  142.06    6.80  145.12    6.85
  134.42    6.62  137.62    6.69  146.88    6.91  128.27    6.45  139.91    6.75
  144.01    6.84  135.30    6.64  127.31    6.43  139.90    6.77  135.01    6.63
  149.37    6.94  134.86    6.66  128.90    6.46  140.84    6.77  130.28    6.51
  123.00    6.32  133.02    6.55  129.16    6.47  114.02    7.47  134.26    8.11
  125.66    7.81  115.23    7.53  136.36    8.15  139.56    8.27  138.75    8.28
  134.19    8.08  140.06    8.28  134.48    8.12  138.95    8.25  124.58    7.79
  136.76    8.20  134.08    8.09  120.36    7.66  144.51    8.41  120.56    7.67
  123.66    7.74  125.57    7.83  131.71    8.03  126.29    7.89  129.22    6.45
  131.85    6.50  118.60    6.16  124.84    6.31  142.36    6.74  134.22    6.54
  127.22    6.39  125.88    6.34  134.31    6.57  140.89    6.71  136.84    6.61
  131.37    6.50  125.13    6.33  127.92    6.40  139.88    6.69  143.72    6.78
  150.10    6.92  140.02    6.69  146.33    6.83  138.11    6.67  125.40    6.33
  143.78    6.78  130.73    6.47  140.84    6.72  131.48    6.49  136.58    6.63
  133.68    6.55  138.87    6.65  127.29    6.37  132.42    6.49  133.53    6.52
  125.02    6.32  126.08    6.34  131.42    7.84  116.17    7.38  130.53    7.83
  128.12    7.68  133.30    7.92  130.94    7.88  125.00    7.65  133.58    7.93
  143.30    8.19  155.76    8.54  151.29    8.40  151.21    8.43  178.47    9.12
  203.11    9.78  282.80   11.55  390.56   13.53  527.11   15.67  746.99   18.62
 1006.99   21.67 1251.90   24.32 1433.36   25.94 1515.18   26.64 1415.66   21.16
 1247.56   19.84  985.38   17.62  748.44   15.36  471.23   12.21  313.31    9.95
  217.58    8.31  165.57    7.22  148.28    6.84  146.13    6.81  138.07    6.60
  141.32    6.68  123.65    6.26  124.67    6.26  134.90    6.52  126.82    6.33
  139.49    6.63  139.12    6.62  139.38    6.60  146.14    6.81  177.89    7.49
  202.45    7.99  247.35    8.86  338.18   10.35  466.01   12.10  707.58   14.99
  956.47   17.40 1274.83   20.01 1558.24   22.20 1741.08   23.39 1763.75   23.51
 1553.68   22.13 1308.70   20.34 1002.66   21.85  705.58   18.24  510.26   15.63
  430.33   14.27  393.18   13.68  474.70   15.09  627.19   17.22  761.68   19.04
  887.38   20.58 1011.61   21.93 1024.66   22.02  894.24   20.68  711.86   18.37
  571.26   16.45  435.24   14.40  281.83   11.56  216.37   10.10  180.48    9.26
  144.22    8.29  138.59    8.15  136.51    6.55  125.29    6.26  136.07    6.52
  123.44    6.20  125.28    6.25  124.50    6.22  140.51    6.64  126.63    6.28
  124.22    6.24  121.64    6.16  124.55    6.24  128.25    6.34  123.41    6.21
  119.58    6.11  127.18    6.30  125.97    6.27  132.85    6.43  137.94    6.56
  137.57    6.54  152.12    6.91  125.23    6.25  131.64    6.41  126.07    6.28
  122.15    6.19  129.61    6.37  125.81    6.28  120.49    6.14  125.62    6.25
  107.45    5.79  113.43    5.94  118.85    6.08  113.31    5.95  113.43    5.95
  126.14    7.71  117.85    7.45  116.72    7.43  118.73    7.42  118.99    7.51
  126.53    7.77  120.15    7.52  123.55    7.65  135.26    7.98  163.34    8.77
  145.68    8.27  171.08    8.99  197.90    9.63  205.83    9.88  217.25   10.15
  208.09    9.91  184.64    9.30  174.17    9.02  139.35    8.09  131.27    7.90
  126.12    7.72  126.51    6.30  132.92    6.46  116.89    6.05  127.33    6.30
  115.03    6.00  122.25    6.19  116.22    6.04  114.18    5.98  111.40    5.90
  110.62    5.87  113.92    6.00  104.92    5.72  113.36    5.97  112.50    5.95
  127.15    6.29  110.61    5.88  118.61    6.08  115.70    6.03  124.09    6.22
  114.46    5.97  129.56    6.39  114.32    5.97  118.38    6.10  119.23    6.12
  114.22    5.99  109.10    5.86  107.23    5.80  121.64    6.17  116.63    6.03
  114.16    5.98  103.62    5.68  118.01    6.07  112.04    5.92  109.20    5.85
  103.24    6.91  102.62    6.87  118.50    7.39  117.25    7.39  120.47    7.50
  104.63    6.96  126.57    7.65  117.92    7.40  111.44    7.18   97.49    6.71
  108.23    7.08  118.64    7.42  114.51    7.29  128.79    7.72  135.85    7.94
  144.41    8.14  168.90    8.80  185.19    9.27  193.02    9.49  209.99    8.33
  202.40    8.17  189.14    7.89  172.30    7.52  161.28    7.29  142.80    6.85
  122.47    6.36  110.77    6.04  119.62    6.28  115.66    6.16   99.98    5.73
  110.43    6.03  111.61    6.07  128.98    6.52  116.38    6.19  119.05    6.24
  116.25    6.18  117.48    6.22  122.77    6.36  112.75    6.08  115.03    6.17
  125.83    6.42  110.81    6.05  111.08    6.05  123.09    6.38  125.76    6.46
  127.58    6.47  121.13    6.32  119.87    6.26  131.71    6.58  116.15    6.16
  114.86    6.15  113.01    6.09  118.80    6.25  130.89    8.21  119.32    7.85
  118.64    7.76  122.81    7.98  109.08    7.55  113.82    7.66  117.46    7.80
  119.01    7.83   97.77    7.09  105.30    7.35  105.39    7.38   95.35    6.99
   91.24    6.88  119.78    7.88  111.41    7.58  103.99    7.30  121.48    7.87
  114.88    7.68  127.90    8.15  117.72    7.80  128.34    8.13  152.85    7.16
  166.16    7.45  194.01    8.05  214.41    8.46  208.19    8.35  206.10    8.30
  220.07    8.60  187.40    7.90  167.78    7.49  149.43    7.08  123.51    6.43
  115.62    6.22  122.92    6.43  105.46    5.92  107.84    6.00   91.13    5.53
  108.98    6.04  102.26    5.85  110.24    6.04  112.41    6.15  107.59    6.00
  109.90    6.06  102.59    5.87  100.63    5.81  113.84    6.16  105.26    5.95
  103.97    5.91  106.83    5.96  109.89    6.07  107.22    5.98  107.27    5.97
  106.81    5.97  116.56    6.25  128.02    8.18  124.17    8.02  124.45    8.08
  110.62    7.58  108.61    7.53  112.15    7.68  118.73    7.85  118.55    7.87
  108.86    7.55  111.13    7.61  127.14    8.12  121.71    7.99  124.78    8.05
  114.84    7.72  125.37    8.09  117.11    7.81  126.18    8.08  112.54    7.66
  123.22    8.02  112.58    7.70  125.07    8.09  112.66    6.20  117.05    6.31
  125.09    6.53  125.22    6.52  133.36    6.74  174.81    7.73  226.01    8.78
  318.38   10.43  446.84   12.36  716.28   15.59 1015.64   18.71 1382.81   21.65
 1735.03   24.32 1946.59   25.76 1996.39   26.07 1841.03   25.06 1471.13   22.34
 1130.89   19.64  815.02   16.69  506.07   13.11  324.17   10.53  222.08    8.69
  157.43    7.34  133.05    6.75  114.39    6.23  118.01    6.36  115.89    6.28
  109.38    6.10  102.06    5.89  101.05    5.86  110.97    6.14  105.29    5.98
  109.14    7.28   99.39    6.96  107.02    7.22  115.09    7.46  104.65    7.12
  113.42    7.45  122.17    7.74  101.19    7.02  119.90    7.63  117.57    7.57
  122.44    7.71  127.20    7.86  134.14    8.07  123.21    7.75  129.10    7.93
  122.67    7.73  152.98    8.63  137.29    8.13  153.85    8.61  180.94    9.39
  226.83   10.54  285.00   11.79  347.66   10.54  424.13   11.62  474.54   12.29
  509.21   12.72  488.78   12.47  437.60   11.81  402.66   11.35  352.08   10.58
  313.15   10.00  305.88    9.85  341.52   10.47  456.72   12.04  646.90   14.37
  777.47   15.74  911.04   16.98  959.26   17.50  965.68   17.49  847.42   16.46
  662.89   14.47  494.78   12.58  386.49   11.09  272.01    9.30  229.18    8.55
  211.13    8.22  238.32    8.71  299.79    9.77  403.05   11.37  533.56   12.98
  768.01   15.64  972.89   17.56 1109.84   18.76 1167.13   19.24 1125.95   18.93
 1053.66   22.47  865.48   20.35  658.21   17.69  489.85   15.28  338.50   12.76
  226.80   10.46  176.07    9.18  156.11    8.63  137.70    8.13  117.07    7.48
  136.56    8.07  138.14    8.13  170.50    9.04  182.54    9.35  204.43    9.89
  260.65   11.18  343.00   12.75  405.54   13.87  477.74   15.14  510.25   15.68
  517.38   15.76  523.09   13.06  550.02   13.37  636.42   14.38  784.80   15.95
 1009.36   18.10 1179.27   19.58 1359.57   21.07 1413.73   21.43 1277.12   20.40
 1102.83   18.89  903.43   17.21  653.54   14.55  453.75   12.16  318.27   10.18
  211.35    8.26  154.47    7.10  138.16    6.69  132.77    6.58  106.77    5.87
  112.90    6.07  121.23    6.28  116.14    6.14  108.19    5.94  100.08    5.72
  101.35    5.74  107.98    5.93   99.51    5.71  101.85    5.73  110.94    6.01
  102.95    5.77  108.12    5.92  114.36    6.09  107.83    5.92  103.56    7.10
  107.28    7.22  104.23    7.09   97.67    6.87  119.53    7.64  109.68    7.33
  111.17    7.35  106.08    7.17  103.21    7.09  113.94    7.43  104.65    7.12
   98.46    6.91   97.68    6.89  109.38    7.29   98.61    6.92  116.68    7.53
  106.72    7.16  111.17    7.31  117.78    7.57  134.44    8.11  170.45    9.11
  197.99    8.04  240.75    8.85  278.82    9.52  307.03    9.98  303.15    9.92
  294.49    9.79  284.94    9.65  242.10    8.87  190.79    7.89  165.49    7.32
  142.33    6.83  124.52    6.35  114.18    6.10  102.59    5.78  108.03    5.91
  110.89    6.01  112.04    6.02   94.68    5.56  109.12    5.94   94.05    5.54
  101.16    5.74  103.25    5.79   97.19    5.63   99.84    5.72  109.88    5.98
  104.16    5.82  109.75    6.00  111.29    5.99  112.33    6.05  116.64    6.15
  113.72    6.07  124.18    6.35  142.70    6.81  148.04    8.63  174.46    9.37
  189.91    9.74  245.87   11.10  264.76   11.57  271.30   11.73  255.41   11.33
  245.82   11.11  233.45   10.85  189.82    9.76  171.10    9.27  149.19    8.66
  140.93    8.42  118.32    7.72  120.75    7.79  123.36    7.88  112.02    7.47
  118.13    7.67  116.94    7.68  122.02    7.86  106.42    7.33  117.01    6.32
  106.50    6.02  104.34    5.95  108.96    6.08  110.78    6.14  112.99    6.20
  117.22    6.33   98.90    5.80   96.87    5.75  107.03    6.02  107.01    6.06
  105.47    5.98  102.02    5.90  101.85    5.89  103.17    5.91  103.01    5.93
  107.02    6.02  106.87    6.04  111.08    6.12  114.42    6.25  124.51    6.51
  126.31    6.55  125.52    6.54  146.18    7.07  179.86    7.82  198.81    8.23
  261.77    9.47  321.84   10.42  418.50   11.94  454.74   12.41  490.98   12.90
  463.87   12.54  430.74   12.10  399.44   14.31  348.15   13.35  315.54   12.67
  313.61   12.65  328.27   13.00  376.45   13.94  428.03   14.80  487.37   15.78
  467.75   15.50  415.74   14.58  381.69   13.97  324.82   12.89  238.84   11.06
  203.55   10.22  154.21    8.89  140.49    8.49  119.65    7.79  121.82    7.86
  108.82    7.47  109.82    7.53  105.29    7.35   97.42    5.73  105.58    5.96
   95.38    5.66   98.62    5.75  110.15    6.08   98.54    5.76  101.32    5.85
   98.40    5.75  100.79    5.83   95.73    5.66   97.28    5.74   94.18    5.62
  101.15    5.84  101.65    5.85   95.27    5.64   95.40    5.67  101.07    5.82
  103.93    5.92   98.09    5.72   89.10    5.48  110.60    6.10   83.55    5.29
   98.08    5.75  104.87    5.96   93.74    5.61   98.91    5.77  104.96    5.96
   99.68    5.76  100.28    5.81  101.46    5.83   96.77    5.69  102.20    5.85
   96.42    5.69   92.47    6.87   91.81    6.84   97.86    7.04   97.04    7.02
   95.35    6.99  107.01    7.42  114.77    7.65  110.96    7.51  112.03    7.57
  114.12    7.63  125.74    8.00  138.11    8.39  147.57    8.68  135.37    8.32
  166.91    9.23  177.26    9.52  179.82    9.53  183.06    9.62  153.93    8.87
  169.01    9.32  146.35    8.65  164.53    7.38  168.06    7.45  182.72    7.76
  199.29    8.10  238.42    8.87  324.97   10.36  383.71   11.28  455.79   12.26
  511.74   13.01  521.96   13.10  519.23   13.15  461.75   12.33  385.73   11.30
  314.35   10.19  247.83    9.02  192.65    7.99  160.05    7.25  133.86    6.66
  109.76    6.00  114.35    6.16  124.79    6.42  114.34    6.14  127.43    6.49
  141.52    6.86  167.94    7.44  203.50    8.20  257.35    9.25  333.93   10.46
  449.09   12.18  597.48   14.02  734.90   15.55  815.40   16.38  886.81   17.10
  862.06   20.38  746.24   18.95  591.15   16.81  502.21   15.51  378.13   13.52
  274.19   11.54  185.72    9.45  146.43    8.38  136.07    8.10  121.58    7.64
   99.88    6.93  108.64    7.23  105.96    7.14  111.30    7.32  110.26    7.29
  105.53    7.13  144.36    8.29  149.78    8.45  173.17    9.14  230.64   10.57
  308.20   10.00  418.27   11.64  541.08   13.23  717.78   15.21  947.44   17.50
 1193.20   19.61 1548.00   22.40 2061.12   25.83 2503.92   28.47 3050.18   31.37
 3445.46   33.36 3638.09   34.32 3468.02   33.54 3129.69   31.84 2571.47   28.85
 1983.77   25.24 1532.82   22.23 1057.14   18.48  748.63   15.56  608.02   13.99
  541.14   13.25  548.68   13.29  630.92   14.29  761.98   15.71  858.53   16.70
  917.02   17.29  880.58   16.84  842.11   16.52  705.06   15.04  582.57   13.71
  437.95   11.86  346.81   10.59  268.75    9.31  180.99    7.65  150.01    8.51
  130.07    7.93  111.05    7.26  131.94    8.00  119.70    7.65  111.36    7.33
  125.93    7.81  155.76    8.67  159.91    8.78  191.37    9.59  238.88   10.75
  281.19   11.62  320.28   12.47  349.94   13.03  367.42   13.32  359.15   13.12
  301.48   12.00  291.89   11.84  244.30   10.90  204.44    9.94  161.10    7.23
  131.75    6.53  127.81    6.43  130.51    6.49  131.07    6.51  122.02    6.28
  132.98    6.57  131.19    6.52  125.69    6.37  119.70    6.21  121.86    6.30
  101.27    5.71  105.35    5.85   91.18    5.44   97.50    5.60  109.70    5.95
   96.37    5.57  127.27    6.43  115.90    6.11  115.94    6.10  151.03    7.01
  140.88    6.73  157.91    7.16  154.95    7.09  185.66    7.76  198.04    8.02
  245.73    8.92  275.42    9.43  328.12   10.28  373.01   10.98  403.88   11.39
  420.68   11.65  392.97   11.27  360.00   10.80  309.23   12.36  243.06   10.92
  187.94    9.62  157.87    8.85  137.02    8.26  123.99    7.83  100.55    7.04
   98.58    6.99   93.74    6.80  105.01    7.20  110.06    7.37  100.88    7.06
  112.29    7.45  117.65    7.63  140.99    8.35  149.19    8.54  170.43    9.14
  183.74    9.54  191.03    9.75  185.83    9.60  164.19    7.43  154.39    7.19
  133.81    6.69  124.29    6.44  119.74    6.33  108.20    6.02  107.64    6.02
   97.35    5.71  111.47    6.12  102.02    5.83  111.41    6.13  130.86    6.61
  165.57    7.46  190.77    8.00  257.70    9.26  308.22   10.17  382.67   11.29
  479.93   12.70  493.17   12.80  542.26   13.50  526.04   13.27  499.66   12.92
  451.21   12.31  428.95   12.02  360.76   10.99  302.58   10.07  312.29   10.26
  347.34   10.74  389.81   11.43  414.24   11.75  463.92   12.44  502.98   12.96
  508.30   13.04  467.47   15.41  426.17   14.70  391.87   14.06  323.40   12.78
  270.75   11.75  241.53   11.12  193.81    9.92  196.43    9.97  251.35   11.31
  264.52   11.58  384.82   13.96  449.11   15.09  547.51   16.68  631.55   17.91
  790.99   20.04  818.56   20.39  861.61   20.81  851.55   20.70  811.30   20.31
  778.68   19.95  728.83   19.26  776.36   16.48  681.13   15.42  646.88   15.02
  578.86   14.20  496.17   13.15  415.54   12.05  345.05   11.00  262.24    9.56
  207.89    8.53  182.46    7.96  129.51    6.75  118.66    6.43  113.78    6.31
  102.75    5.99   96.49    5.79   96.95    5.83   91.74    5.65   91.79    5.67
   90.42    5.60   97.77    5.85   84.12    5.42  104.52    6.03   93.79    5.73
   93.44    5.73  102.22    5.97   97.11    5.82  101.60    5.98  109.39    6.15
  112.51    6.27  130.73    6.74  143.24    7.06  153.09    7.30  177.90    7.88
  190.04   10.16  184.33   10.00  185.39   10.00  178.19    9.81  161.82    9.39
  167.33    9.57  151.26    9.06  124.97    8.22  108.20    7.67  101.80    7.42
   99.02    7.32  106.17    7.58  104.20    7.52  109.67    7.72  102.54    7.46
  102.08    7.44  112.20    7.76   96.75    7.21  124.47    8.23  115.75    7.95
  118.02    8.01  119.28    8.04  122.57    6.49  150.22    7.17  150.81    7.19
  172.91    7.69  190.30    8.08  234.30    8.97  302.30   10.19  417.45   11.97
  567.39   13.95  758.80   16.17 1032.56   18.85 1321.99   21.25 1695.71   24.14
 1993.82   26.07 2196.03   27.48 2363.71   28.47 2460.70   29.04 2419.30   28.74
 2425.44   28.85 2400.97   28.69 2354.26   28.45 2360.33   28.43 2311.27   28.26
 2219.87   27.59 2039.16   26.34 1912.31   25.75 1580.00   23.23 1304.57   21.15
 1035.85   18.84  779.16   16.33  556.92   13.77  425.66   12.07  300.00   12.39
  241.95   11.14  182.73    9.63  175.66    9.51  155.90    8.91  162.90    9.13
  174.59    9.50  189.72    9.82  201.85   10.17  239.77   11.10  233.40   10.93
  244.88   11.17  241.36   11.15  216.77   10.51  202.38   10.16  197.81   10.07
  179.22    9.57  160.31    9.02  165.61    9.20  148.54    8.72  145.02    8.65
  156.08    7.25  148.36    7.05  173.95    7.63  164.39    7.41  162.00    7.36
  146.12    6.98  149.94    7.10  145.43    6.97  143.91    6.96  152.78    7.15
  157.59    7.26  156.62    7.26  192.56    8.03  202.80    8.24  203.65    8.26
  202.53    8.23  184.75    7.85  183.98    7.85  175.48    7.65  142.84    6.94
  136.23    6.74  115.69    6.22  115.01    6.21   98.37    5.75  101.68    5.84
   98.87    5.77   88.56    5.45   88.32    5.43   87.80    5.41   84.27    5.30
   92.04    5.54   93.35    5.59   83.17    5.27   91.05    6.59   83.08    6.30
   78.01    6.11   85.03    6.32   74.42    5.98   81.24    6.27   89.71    6.54
   80.55    6.21   84.97    6.37   87.25    6.45   89.95    6.54   85.68    6.40
   89.77    6.53   92.71    6.67   84.08    6.36   88.41    6.50   98.25    6.83
   94.11    6.67  103.60    7.02  112.72    7.37  117.69    7.50  122.02    6.23
  134.87    6.54  152.58    6.96  175.96    7.46  193.85    7.84  249.72    8.90
  299.19    9.75  360.09   10.69  392.46   11.15  440.97   11.79  443.37   11.90
  439.65   11.77  431.93   11.73  441.86   11.86  400.01   11.23  328.62   10.20
  326.72   10.16  329.09   10.23  332.02   10.24  348.21   10.47  356.75   10.67
  379.95   10.95  400.51   11.28  409.85   11.42  391.33   11.15  435.40   11.77
  460.21   12.09  440.92   11.81  488.02   12.41  497.69   12.55  516.26   12.75
  518.27   12.80  505.94   12.66  476.48   12.30  454.17   14.77  399.45   13.81
  361.02   13.14  298.66   12.00  306.04   12.17  286.63   11.73  245.28   10.84
  246.99   10.91  244.08   10.82  253.95   11.03  242.23   10.78  228.29   10.47
  219.72   10.28  187.37    9.49  181.27    9.34  160.69    8.74  178.01    9.20
  160.76    8.80  167.29    8.99  187.35    9.50  225.18   10.40  215.12    8.22
  259.79    9.02  326.69   10.12  381.33   10.92  512.46   12.69  680.66   14.63
  801.58   15.87  935.32   17.13 1054.62   18.19 1150.61   19.04 1207.30   19.49
 1137.36   18.85 1088.21   18.49  973.14   17.42  791.98   15.79  664.86   14.44
  497.36   12.48  417.35   11.42  315.37    9.95  241.41    8.70  180.79    7.54
  131.55    6.42  113.12    5.98  106.04    5.77  100.18    5.58   98.34    5.59
   95.58    5.46   90.35    5.32   87.42    5.23   96.09    5.48  101.20    5.61
   86.70    5.21   91.94    6.53   81.84    6.17   86.56    6.31   89.71    6.47
   91.96    6.52   86.43    6.34   95.58    6.69  102.89    6.89  101.31    6.86
  108.05    7.09  114.67    7.30  119.14    7.42  131.17    7.83  143.42    8.15
  152.13    8.39  169.67    8.88  179.24    9.11  188.20    9.31  181.75    9.18
  190.96    9.42  190.53    9.44  168.11    8.85  138.71    6.64  132.24    6.47
  122.96    6.24  113.90    5.99   99.63    5.61   95.23    5.50   92.05    5.41
   92.42    5.42   86.14    5.23   82.06    5.09   99.94    5.66   86.00    5.21
   72.60    4.80   94.14    5.46   92.44    5.41   81.54    5.09   85.45    5.19
   83.37    5.14   98.22    5.59   81.21    5.07   93.15    5.44  103.71    5.73
  101.51    5.68   98.26    5.59  103.52    5.72  110.03    5.92   93.80    5.45
   98.22    5.57   97.10    5.54   98.38    5.58  109.17    5.87   96.95    5.53
   96.19    6.77  103.79    7.05   88.35    6.50   90.67    6.56   82.76    6.27
   83.03    6.31   90.07    6.59   82.62    6.28   80.06    6.18   82.37    6.28
   73.93    5.94   72.44    5.88   87.32    6.45   87.96    6.48   80.82    6.22
   73.59    5.93   88.96    6.52   72.35    5.85   87.59    6.44   93.36    6.69
   80.32    6.22   82.55    5.12   87.67    5.27   94.28    5.46  101.78    5.66
  101.44    5.66  112.21    5.95  128.36    6.38  141.17    6.68  149.02    6.87
  184.24    7.62  216.92    8.28  242.43    8.76  285.65    9.52  301.18    9.77
  332.05   10.25  369.29   10.77  368.88   10.78  399.05   11.23  338.13   10.34
  342.99   10.39  331.64   10.26  289.12    9.54  246.03    8.83  208.23    8.12
  169.96    7.35  152.28    6.97  132.25    6.45  119.15    6.14  110.70    5.89
   95.87    5.50   84.81    5.16   96.37    5.52   85.79    5.20   86.26    5.22
   85.43    6.44   91.47    6.67   93.60    6.69   83.47    6.38  100.78    7.04
   81.98    6.31   87.73    6.54   94.14    6.76   78.03    6.15   83.70    6.36
   88.07    6.55   90.29    6.60   80.08    6.25   78.14    6.18   80.16    6.24
   79.13    6.18   79.33    6.18   87.92    6.52   77.86    6.17   89.49    6.60
   85.18    5.22   89.87    5.36   84.08    5.18   92.65    5.43   98.80    5.62
  105.21    5.80  111.83    5.99  117.13    6.12  135.67    6.58  137.01    6.60
  145.51    6.84  168.66    7.32  179.90    7.60  197.17    7.95  201.88    8.01
  217.39    8.32  235.33    8.66  250.51    8.96  278.31    9.41  298.57    9.73
  353.11   10.66  381.01   11.00  424.78   11.67  467.61   12.25  494.58   12.58
  541.12   13.17  576.39   13.58  552.82   13.28  576.13   13.54  557.73   13.34
  578.38   13.55  626.14   14.12  674.64   14.68  706.53   15.04  756.82   18.85
  812.06   19.47  880.98   20.30  877.62   20.35  968.39   21.41  900.98   20.57
  936.49   20.95  906.83   20.66  892.84   20.46  822.33   19.63  775.85   19.08
  702.18   18.17  650.25   17.49  574.58   16.43  503.58   15.39  428.65   14.12
  387.72   13.43  335.14   12.56  279.44   11.49  234.08    8.51  215.13    8.15
  177.71    7.40  170.54    7.24  148.54    6.77  141.70    6.60  162.26    7.08
  163.60    7.11  175.25    7.35  207.67    7.99  229.70    8.41  242.90    8.66
  257.85    8.93  261.60    8.99  278.75    9.28  282.35    9.30  281.02    9.30
  256.05    8.88  261.64    8.98  238.44    8.55  184.76    7.56  176.41    7.36
  156.55    6.95  139.49    6.56  122.06    6.15  117.44    6.04  109.62    5.80
   92.71    5.35  109.48    5.79  107.95    5.76  115.18    5.94  107.23    5.75
   99.04    5.52  114.32    5.93   99.30    6.76  100.01    6.79  102.68    6.81
   96.62    6.68   98.72    6.78  105.22    6.95   97.41    6.71   94.22    6.58
   94.11    6.57  102.20    6.84   90.80    6.47  107.93    7.03   85.57    6.29
   83.27    6.21   97.56    6.70   95.06    6.59   98.82    6.71  105.70    6.95
  118.74    7.42   96.28    6.66   88.75    6.39   86.36    5.15   93.19    5.34
   96.14    5.43  102.58    5.60   85.45    5.13   94.18    5.38   89.96    5.26
  100.28    5.54   98.98    5.51   90.21    5.27   83.78    5.07   84.56    5.09
   89.92    5.26   89.68    5.23  103.47    5.63   96.76    5.45   94.10    5.37
  100.20    5.54   96.52    5.41  105.53    5.71  111.82    5.85  126.80    6.23
  132.62    6.40  125.79    6.22  159.32    6.97  174.82    7.34  190.05    7.64
  201.69    7.84  233.77    8.47  243.33    8.62  251.52    8.75  261.97    8.95
  277.02    9.22  289.14   11.50  257.76   10.81  247.35   10.66  249.18   10.64
  226.31   10.17  226.82   10.23  193.39    9.37  195.24    9.45  163.13    8.65
  171.76    8.86  165.85    8.68  153.87    8.41  169.34    8.78  162.42    8.60
  163.28    8.64  190.49    9.32  182.91    9.10  195.70    9.45  223.09   10.10
  213.72    9.92  215.79    8.20  204.30    7.96  212.43    8.11  212.48    8.11
  199.44    7.85  218.65    8.22  208.20    8.05  208.59    8.03  205.42    8.00
  229.94    8.44  266.98    9.09  305.22    9.74  319.62    9.95  390.03   10.99
  406.80   11.23  439.32   11.66  453.48   11.83  503.50   12.49  499.06   12.41
  519.25   12.73  500.10   12.43  486.55   12.27  453.79   11.87  424.83   11.49
  395.45   11.08  352.70   10.48  308.05    9.78  296.50    9.56  242.60    8.66
  209.05    8.03  192.01    7.70  193.58    7.74  187.07    7.61  179.09    9.20
  178.42    9.19  174.11    9.09  184.86    9.28  234.63   10.57  235.36   10.62
  286.65   11.64  306.05   12.06  347.77   12.83  357.75   13.00  397.70   13.70
  411.82   13.98  439.73   14.39  460.90   14.81  482.88   15.16  485.09   15.16
  469.53   14.86  468.31   14.82  425.34   14.15  435.95   14.43  380.31   13.43
  341.78   12.72  293.70    9.60  275.72    9.29  257.58    8.97  215.72    8.21
  208.39    8.09  177.59    7.46  163.24    7.17  143.27    6.69  132.97    6.45
  136.11    6.54  112.48    5.94  119.18    6.11  115.38    6.02  109.62    5.84
  105.64    5.75  110.71    5.89  113.29    5.95  120.13    6.13  118.38    6.06
  137.68    6.59  107.28    5.79  131.34    6.41  140.44    6.65  135.65    6.53
  167.34    7.22  184.79    7.63  186.50    7.65  215.27    8.19  251.22    8.88
  240.33    8.66  262.08    9.03  300.27    9.69  321.39   10.04  364.15   13.16
  352.10   12.87  398.43   13.80  402.56   13.79  412.84   14.00  416.77   14.13
  397.18   13.69  413.83   14.02  396.64   13.74  359.33   13.06  325.78   12.40
  332.66   12.60  276.71   11.44  279.87   11.50  240.48   10.69  220.19   10.21
  190.54    9.47  161.17    8.74  162.46    8.78  136.88    8.09  146.17    8.34
  116.97    6.01  115.66    5.96  115.55    5.97  116.57    5.98  123.01    6.15
  117.59    6.02  113.57    5.92  122.90    6.16  119.29    6.07  121.21    6.10
  129.87    6.36  139.06    6.53  135.94    6.47  146.07    6.71  133.59    6.41
  158.56    6.99  161.25    7.03  168.58    7.21  189.75    7.66  187.41    7.59
  200.62    7.87  190.30    7.65  179.13    7.44  177.78    7.41  192.09    7.68
  181.72    7.51  163.61    7.10  166.12    7.14  166.98    7.17  154.71    6.90
  134.06    6.41  134.48    6.43  119.22    7.34  114.30    7.20  108.70    7.02
  121.56    7.40  104.65    6.87  127.90    7.63  119.68    7.39  135.42    7.83
  148.23    8.18  144.43    8.10  166.47    8.68  175.83    8.91  188.24    9.23
  178.64    9.00  208.64    9.73  227.06   10.14  231.32   10.24  240.39   10.38
  241.12   10.40  254.28   10.75  260.44   10.90  247.16   10.60  228.52    8.42
  230.41    8.45  240.05    8.62  239.44    8.60  218.05    8.21  213.73    8.14
  224.58    8.36  205.09    7.96  201.80    7.92  192.37    7.70  186.37    7.63
  161.75    7.07  166.14    7.18  166.48    7.18  134.54    6.44  149.03    6.80
  139.94    6.57  136.74    6.52  128.45    6.28  135.23    6.48  132.52    6.41
  134.13    6.44  132.56    6.42  131.49    6.40  142.04    6.63  157.10    6.98
  160.61    7.08  158.75    6.98  178.84    7.45  212.19    8.09  238.09    8.57
  260.48    8.97  282.51    9.35  301.32   11.86  322.75   12.26  342.13   12.59
  378.51   13.25  353.38   12.86  391.30   13.56  362.35   12.99  388.97   13.44
  395.13   13.58  394.00   13.54  367.66   13.07  372.25   13.16  356.20   12.89
  335.34   12.51  340.68   12.60  352.15   12.82  382.32   13.28  404.47   13.67
  439.85   14.33  440.89   14.38  487.30   15.09  550.53   13.42  547.79   13.36
  585.61   13.81  598.54   13.95  600.51   13.98  592.59   13.90  584.28   13.83
  558.24   13.48  568.77   13.64  534.28   13.17  542.67   13.36  496.94   12.71
  427.35   11.82  409.99   11.57  387.70   11.21  384.10   11.21  388.80   11.23
  386.12   11.24  390.86   11.25  385.90   11.24  392.52   11.31  407.41   11.51
  404.98   11.51  441.58   12.04  428.78   11.82  428.36   11.82  459.04   12.28
  447.12   12.02  426.85   11.80  398.44   11.37  381.22   11.13  374.67   11.03
  340.79   10.54  319.20   12.87  285.55   12.16  280.76   12.03  242.08   11.18
  251.04   11.43  194.97   10.10  180.35    9.67  194.44   10.03  180.35    9.68
  180.13    9.66  183.10    9.73  200.38   10.19  206.48   10.35  229.91   10.92
  233.89   11.01  263.14   11.69  266.34   11.69  251.76   11.37  313.30   12.76
  299.06   12.49  313.01   10.17  327.81   10.39  315.19   10.18  343.08   10.60
  349.34   10.71  337.93   10.52  376.06   11.13  346.94   10.69  332.64   10.46
  312.99   10.13  293.55    9.82  296.21    9.87  287.50    9.74  272.04    9.47
  248.20    9.04  249.16    9.02  238.36    8.84  230.00    8.69  224.12    8.58
  195.36    8.00  187.79    7.87  167.84    7.41  158.05    7.21  147.43    6.97
  145.03    6.92  125.90    6.46  116.90    6.19  118.63    6.25  105.01    5.85
  114.78    6.14  114.33    6.11  119.28    6.26  112.83    6.08   99.56    5.72
  123.10    7.80  112.49    7.47  112.35    7.39  135.22    8.20  118.17    7.69
  135.38    8.18  138.00    8.28  150.25    8.62  157.47    8.82  146.85    8.51
  164.04    9.02  182.94    9.49  174.57    9.32  193.00    9.80  186.06    9.60
  195.10    9.79  213.01   10.21  193.86    9.77  209.98   10.23  179.81    9.44
  181.96    9.49  156.68    7.06  169.93    7.35  159.26    7.11  142.15    6.72
  146.51    6.83  142.72    6.74  140.77    6.70  139.07    6.64  118.44    6.13
  129.21    6.42  128.79    6.40  122.55    6.24  115.83    6.08  135.91    6.55
  122.44    6.23  136.86    6.60  158.49    7.09  161.61    7.16  168.27    7.27
  204.00    8.08  204.11    8.05  231.36    8.57  284.10    9.53  298.93    9.76
  342.82   10.41  408.30   11.42  428.26   11.68  503.66   12.62  636.60   14.23
  702.62   14.91  816.56   16.05  924.69   17.12 1030.40   18.11 1110.61   22.35
 1190.55   23.03 1272.48   23.98 1362.22   24.68 1399.34   25.08 1510.32   26.16
 1604.14   26.76 1692.60   27.58 1845.87   28.84 1973.52   29.77 2020.62   30.04
 2248.95   31.87 2299.62   32.08 2374.40   32.59 2632.05   34.40 2628.77   34.32
 2784.46   35.21 2717.64   34.91 2907.69   36.15 3022.45   37.00 2998.12   36.75
 2953.68   29.64 2943.83   29.54 2955.73   29.63 2903.06   29.30 2926.91   29.45
 2800.70   28.86 2710.98   28.40 2565.83   27.63 2366.85   26.55 2164.44   25.30
 2005.76   24.54 1808.29   23.10 1595.25   21.77 1414.54   20.50 1213.23   18.97
 1079.13   17.91  917.32   16.46  796.88   15.38  714.18   14.58  619.70   13.55
  518.64   12.43  454.78   11.61  410.25   11.06  358.15   10.33  314.94    9.65
  280.91    9.16  271.69    8.98  227.56    8.21  227.60    8.21  197.70    7.65
  183.30    7.36  172.20    7.14  169.91    8.67  158.66    8.40  127.80    7.53
  140.72    7.88  144.53    7.99  137.80    7.84  135.62    7.79  130.02    7.60
  122.21    7.36  117.49    7.23  114.35    7.12  122.23    7.36  113.06    7.08
  125.72    7.47  113.32    7.10  109.24    6.96  125.77    7.48  131.83    7.61
  109.98    6.96  113.89    7.12  107.70    6.94  106.59    5.83   96.70    5.55
   97.94    5.58  102.30    5.69  109.26    5.89  103.27    5.72  111.81    5.97
  113.89    6.02  109.07    5.89  110.98    5.93  111.07    5.94  106.88    5.83
  116.31    6.09  104.73    5.77  109.13    5.89  111.10    5.92  116.93    6.09
  110.51    5.92  120.38    6.18  108.17    5.85  118.02    6.14  128.07    6.36
  113.93    6.02  120.87    6.20  121.33    6.22  135.77    6.59  121.85    6.21
  129.63    6.43  122.93    6.22  121.08    6.19  126.29    6.31  131.48    6.46
  136.95    6.59  125.76    6.32  106.23    7.24  105.99    7.25  126.87    7.85
  113.28    7.50  116.10    7.62  125.92    7.89  116.10    7.59  113.12    7.47
  123.34    7.80  129.53    7.99  117.39    7.63  126.32    7.88  128.25    7.98
  126.28    7.92  120.18    7.71  129.67    7.98  131.16    8.01  142.61    8.37
  136.59    8.25  138.62    8.28  124.54    7.85  141.29    8.35  140.48    8.32
  144.91    8.44  141.40    8.35  133.32    8.11  117.90    7.63  136.47    8.21
  119.78    7.67  136.97    8.20  137.33    8.27  130.98    8.03  119.55    7.70
  109.40    7.36  123.09    7.75  118.27    7.62  107.61    7.29  127.39    7.95
  133.85    8.12  109.26    7.30  119.87    7.72  135.23    8.15  116.77    7.60
  144.12    8.46  162.10    8.96  145.73    8.46  168.16    9.09  165.10    9.02
  169.62    9.12  174.59    9.29  192.95    9.75  204.04   10.02  228.00   10.60
  243.02   10.96  149.80   12.99  179.57   14.11  198.99   15.04  195.48   14.91
  209.80   15.38  167.25   13.75  194.31   14.73  196.79   14.88  206.04   15.23
  229.28   16.09  194.23   14.77  188.89   14.66  227.91   16.04  206.61   15.19
  236.08   16.25  212.21   15.35  187.13   14.44  199.07   15.01  246.99   16.69
  194.60   14.84  201.48   15.10  208.71   15.34  182.88   14.32  200.31   15.01
  201.24   15.00  195.20   14.76  243.03   16.50  207.62   15.18  184.96   14.40
  188.54   14.55  190.98   14.65  191.30   14.72  178.46   14.15  183.84   14.31
  194.37   14.69  168.98   13.80  180.56   14.23  161.24   13.44  207.28   15.16
  163.65   13.69  156.96   13.27  178.89   14.23  160.61   13.48  172.71   14.01
  215.19   15.57  197.33   14.83  197.34   14.96  186.51   14.39  231.01   16.13
  221.19   15.72  213.65   15.50  208.92   15.32  214.37   15.51                