   4.00   90.  
   4.05   83.  
   4.10   82.  
   4.15   82.  
   4.20   81.  
   4.25   83.  
   4.30   81.  
   4.35   82.  
   4.40   82.  
   4.45   78.  
   4.50   82.  
   4.55   78.  
   4.60   83.  
   4.65   80.  
   4.70   79.  
   4.75   78.  
   4.80   70.  
   4.85   76.  
   4.90   77.  
   4.95   78.  
   5.00   80.  
   5.05   75.  
   5.10   78.  
   5.15   70.  
   5.20   78.  
   5.25   71.  
   5.30   79.  
   5.35   74.  
   5.40   73.  
   5.45   76.  
   5.50   78.  
   5.55   74.  
   5.60   69.  
   5.65   77.  
   5.70   71.  
   5.75   66.  
   5.80   75.  
   5.85   71.  
   5.90   76.  
   5.95   70.  
   6.00   72.  
   6.05   71.  
   6.10   67.  
   6.15   66.  
   6.20   70.  
   6.25   74.  
   6.30   73.  
   6.35   68.  
   6.40   68.  
   6.45   75.  
   6.50   67.  
   6.55   71.  
   6.60   71.  
   6.65   65.  
   6.70   66.  
   6.75   72.  
   6.80   71.  
   6.85   73.  
   6.90   72.  
   6.95   68.  
   7.00   66.  
   7.05   70.  
   7.10   70.  
   7.15   70.  
   7.20   68.  
   7.25   71.  
   7.30   70.  
   7.35   67.  
   7.40   65.  
   7.45   65.  
   7.50   69.  
   7.55   66.  
   7.60   69.  
   7.65   64.  
   7.70   63.  
   7.75   67.  
   7.80   68.  
   7.85   64.  
   7.90   63.  
   7.95   69.  
   8.00   71.  
   8.05   68.  
   8.10   67.  
   8.15   70.  
   8.20   68.  
   8.25   68.  
   8.30   67.  
   8.35   66.  
   8.40   67.  
   8.45   61.  
   8.50   68.  
   8.55   66.  
   8.60   66.  
   8.65   69.  
   8.70   69.  
   8.75   72.  
   8.80   76.  
   8.85   75.  
   8.90   73.  
   8.95   75.  
   9.00   86.  
   9.05   91.  
   9.10   92.  
   9.15  103.  
   9.20  119.  
   9.25  120.  
   9.30  124.  
   9.35  138.  
   9.40  132.  
   9.45  130.  
   9.50  124.  
   9.55  103.  
   9.60   86.  
   9.65   73.  
   9.70   70.  
   9.75   68.  
   9.80   60.  
   9.85   67.  
   9.90   62.  
   9.95   63.  
  10.00   62.  
  10.05   65.  
  10.10   64.  
  10.15   66.  
  10.20   61.  
  10.25   62.  
  10.30   58.  
  10.35   64.  
  10.40   69.  
  10.45   62.  
  10.50   66.  
  10.55   67.  
  10.60   70.  
  10.65   65.  
  10.70   63.  
  10.75   62.  
  10.80   64.  
  10.85   62.  
  10.90   64.  
  10.95   62.  
  11.00   63.  
  11.05   66.  
  11.10   62.  
  11.15   62.  
  11.20   61.  
  11.25   62.  
  11.30   62.  
  11.35   61.  
  11.40   63.  
  11.45   59.  
  11.50   63.  
  11.55   61.  
  11.60   60.  
  11.65   62.  
  11.70   61.  
  11.75   63.  
  11.80   59.  
  11.85   60.  
  11.90   60.  
  11.95   61.  
  12.00   70.  
  12.05   64.  
  12.10   64.  
  12.15   56.  
  12.20   59.  
  12.25   58.  
  12.30   66.  
  12.35   63.  
  12.40   59.  
  12.45   61.  
  12.50   62.  
  12.55   60.  
  12.60   58.  
  12.65   64.  
  12.70   57.  
  12.75   59.  
  12.80   63.  
  12.85   59.  
  12.90   57.  
  12.95   59.  
  13.00   56.  
  13.05   61.  
  13.10   65.  
  13.15   64.  
  13.20   62.  
  13.25   61.  
  13.30   61.  
  13.35   62.  
  13.40   65.  
  13.45   59.  
  13.50   60.  
  13.55   63.  
  13.60   67.  
  13.65   61.  
  13.70   60.  
  13.75   66.  
  13.80   63.  
  13.85   60.  
  13.90   63.  
  13.95   62.  
  14.00   65.  
  14.05   66.  
  14.10   69.  
  14.15   69.  
  14.20   68.  
  14.25   65.  
  14.30   60.  
  14.35   67.  
  14.40   57.  
  14.45   69.  
  14.50   66.  
  14.55   57.  
  14.60   57.  
  14.65   68.  
  14.70   62.  
  14.75   62.  
  14.80   63.  
  14.85   57.  
  14.90   65.  
  14.95   58.  
  15.00   62.  
  15.05   64.  
  15.10   67.  
  15.15   56.  
  15.20   62.  
  15.25   67.  
  15.30   61.  
  15.35   65.  
  15.40   60.  
  15.45   65.  
  15.50   68.  
  15.55   66.  
  15.60   66.  
  15.65   59.  
  15.70   72.  
  15.75   66.  
  15.80   65.  
  15.85   67.  
  15.90   63.  
  15.95   62.  
  16.00   66.  
  16.05   71.  
  16.10   64.  
  16.15   62.  
  16.20   55.  
  16.25   61.  
  16.30   67.  
  16.35   66.  
  16.40   70.  
  16.45   60.  
  16.50   66.  
  16.55   58.  
  16.60   62.  
  16.65   61.  
  16.70   60.  
  16.75   63.  
  16.80   60.  
  16.85   61.  
  16.90   64.  
  16.95   67.  
  17.00   66.  
  17.05   60.  
  17.10   58.  
  17.15   62.  
  17.20   64.  
  17.25   69.  
  17.30   61.  
  17.35   61.  
  17.40   63.  
  17.45   61.  
  17.50   62.  
  17.55   63.  
  17.60   61.  
  17.65   62.  
  17.70   56.  
  17.75   65.  
  17.80   63.  
  17.85   63.  
  17.90   65.  
  17.95   66.  
  18.00   63.  
  18.05   66.  
  18.10   58.  
  18.15   62.  
  18.20   64.  
  18.25   64.  
  18.30   66.  
  18.35   66.  
  18.40   64.  
  18.45   66.  
  18.50   62.  
  18.55   68.  
  18.60   64.  
  18.65   64.  
  18.70   68.  
  18.75   71.  
  18.80   80.  
  18.85   78.  
  18.90   79.  
  18.95   79.  
  19.00   81.  
  19.05   82.  
  19.10   77.  
  19.15   70.  
  19.20   65.  
  19.25   64.  
  19.30   63.  
  19.35   68.  
  19.40   63.  
  19.45   62.  
  19.50   64.  
  19.55   65.  
  19.60   66.  
  19.65   63.  
  19.70   68.  
  19.75   61.  
  19.80   66.  
  19.85   67.  
  19.90   64.  
  19.95   63.  
  20.00   59.  
  20.05   66.  
  20.10   64.  
  20.15   63.  
  20.20   64.  
  20.25   66.  
  20.30   65.  
  20.35   61.  
  20.40   65.  
  20.45   62.  
  20.50   63.  
  20.55   62.  
  20.60   68.  
  20.65   66.  
  20.70   65.  
  20.75   62.  
  20.80   67.  
  20.85   60.  
  20.90   67.  
  20.95   75.  
  21.00   69.  
  21.05   67.  
  21.10   68.  
  21.15   68.  
  21.20   66.  
  21.25   65.  
  21.30   67.  
  21.35   69.  
  21.40   60.  
  21.45   62.  
  21.50   63.  
  21.55   65.  
  21.60   73.  
  21.65   69.  
  21.70   61.  
  21.75   63.  
  21.80   67.  
  21.85   62.  
  21.90   68.  
  21.95   64.  
  22.00   64.  
  22.05   65.  
  22.10   61.  
  22.15   64.  
  22.20   68.  
  22.25   63.  
  22.30   61.  
  22.35   66.  
  22.40   64.  
  22.45   63.  
  22.50   66.  
  22.55   68.  
  22.60   68.  
  22.65   67.  
  22.70   64.  
  22.75   65.  
  22.80   60.  
  22.85   62.  
  22.90   60.  
  22.95   63.  
  23.00   62.  
  23.05   64.  
  23.10   63.  
  23.15   62.  
  23.20   62.  
  23.25   61.  
  23.30   63.  
  23.35   61.  
  23.40   58.  
  23.45   62.  
  23.50   64.  
  23.55   64.  
  23.60   67.  
  23.65   59.  
  23.70   63.  
  23.75   63.  
  23.80   62.  
  23.85   60.  
  23.90   66.  
  23.95   64.  
  24.00   63.  
  24.05   64.  
  24.10   59.  
  24.15   62.  
  24.20   56.  
  24.25   65.  
  24.30   63.  
  24.35   63.  
  24.40   65.  
  24.45   58.  
  24.50   60.  
  24.55   66.  
  24.60   66.  
  24.65   58.  
  24.70   63.  
  24.75   62.  
  24.80   61.  
  24.85   62.  
  24.90   61.  
  24.95   59.  
  25.00   62.  
  25.05   63.  
  25.10   59.  
  25.15   61.  
  25.20   66.  
  25.25   62.  
  25.30   60.  
  25.35   62.  
  25.40   64.  
  25.45   66.  
  25.50   56.  
  25.55   57.  
  25.60   60.  
  25.65   62.  
  25.70   64.  
  25.75   65.  
  25.80   67.  
  25.85   61.  
  25.90   57.  
  25.95   62.  
  26.00   60.  
  26.05   63.  
  26.10   62.  
  26.15   56.  
  26.20   59.  
  26.25   64.  
  26.30   68.  
  26.35   60.  
  26.40   60.  
  26.45   63.  
  26.50   58.  
  26.55   62.  
  26.60   61.  
  26.65   60.  
  26.70   61.  
  26.75   63.  
  26.80   66.  
  26.85   66.  
  26.90   62.  
  26.95   59.  
  27.00   67.  
  27.05   63.  
  27.10   61.  
  27.15   63.  
  27.20   61.  
  27.25   63.  
  27.30   64.  
  27.35   62.  
  27.40   63.  
  27.45   61.  
  27.50   62.  
  27.55   62.  
  27.60   65.  
  27.65   66.  
  27.70   64.  
  27.75   63.  
  27.80   63.  
  27.85   70.  
  27.90   74.  
  27.95   76.  
  28.00   98.  
  28.05  121.  
  28.10  155.  
  28.15  197.  
  28.20  223.  
  28.25  238.  
  28.30  237.  
  28.35  197.  
  28.40  161.  
  28.45  131.  
  28.50  106.  
  28.55  102.  
  28.60  107.  
  28.65  109.  
  28.70  107.  
  28.75   99.  
  28.80   87.  
  28.85   77.  
  28.90   70.  
  28.95   70.  
  29.00   62.  
  29.05   64.  
  29.10   60.  
  29.15   61.  
  29.20   63.  
  29.25   65.  
  29.30   64.  
  29.35   62.  
  29.40   66.  
  29.45   65.  
  29.50   70.  
  29.55   71.  
  29.60   85.  
  29.65   99.  
  29.70  130.  
  29.75  161.  
  29.80  190.  
  29.85  190.  
  29.90  203.  
  29.95  180.  
  30.00  142.  
  30.05  104.  
  30.10   84.  
  30.15   73.  
  30.20   65.  
  30.25   64.  
  30.30   60.  
  30.35   60.  
  30.40   63.  
  30.45   64.  
  30.50   66.  
  30.55   67.  
  30.60   66.  
  30.65   61.  
  30.70   57.  
  30.75   60.  
  30.80   61.  
  30.85   60.  
  30.90   64.  
  30.95   61.  
  31.00   62.  
  31.05   64.  
  31.10   61.  
  31.15   60.  
  31.20   67.  
  31.25   63.  
  31.30   62.  
  31.35   61.  
  31.40   67.  
  31.45   67.  
  31.50   76.  
  31.55   88.  
  31.60  111.  
  31.65  144.  
  31.70  174.  
  31.75  186.  
  31.80  189.  
  31.85  169.  
  31.90  139.  
  31.95  109.  
  32.00   85.  
  32.05   69.  
  32.10   61.  
  32.15   63.  
  32.20   60.  
  32.25   57.  
  32.30   63.  
  32.35   61.  
  32.40   65.  
  32.45   60.  
  32.50   58.  
  32.55   63.  
  32.60   66.  
  32.65   63.  
  32.70   61.  
  32.75   66.  
  32.80   64.  
  32.85   58.  
  32.90   63.  
  32.95   64.  
  33.00   60.  
  33.05   60.  
  33.10   62.  
  33.15   63.  
  33.20   60.  
  33.25   62.  
  33.30   59.  
  33.35   58.  
  33.40   58.  
  33.45   60.  
  33.50   59.  
  33.55   57.  
  33.60   61.  
  33.65   59.  
  33.70   63.  
  33.75   60.  
  33.80   64.  
  33.85   66.  
  33.90   62.  
  33.95   60.  
  34.00   67.  
  34.05   62.  
  34.10   75.  
  34.15   76.  
  34.20   88.  
  34.25  103.  
  34.30  104.  
  34.35  102.  
  34.40   95.  
  34.45   80.  
  34.50   72.  
  34.55   70.  
  34.60   63.  
  34.65   66.  
  34.70   64.  
  34.75   63.  
  34.80   64.  
  34.85   61.  
  34.90   58.  
  34.95   61.  
  35.00   64.  
  35.05   60.  
  35.10   64.  
  35.15   61.  
  35.20   60.  
  35.25   61.  
  35.30   59.  
  35.35   58.  
  35.40   62.  
  35.45   64.  
  35.50   63.  
  35.55   56.  
  35.60   61.  
  35.65   62.  
  35.70   56.  
  35.75   58.  
  35.80   58.  
  35.85   66.  
  35.90   58.  
  35.95   65.  
  36.00   60.  
  36.05   58.  
  36.10   64.  
  36.15   64.  
  36.20   65.  
  36.25   60.  
  36.30   63.  
  36.35   62.  
  36.40   64.  
  36.45   64.  
  36.50   56.  
  36.55   62.  
  36.60   63.  
  36.65   63.  
  36.70   62.  
  36.75   62.  
  36.80   65.  
  36.85   54.  
  36.90   56.  
  36.95   60.  
  37.00   63.  
  37.05   68.  
  37.10   86.  
  37.15   98.  
  37.20  120.  
  37.25  127.  
  37.30  141.  
  37.35  135.  
  37.40  112.  
  37.45  104.  
  37.50   79.  
  37.55   69.  
  37.60   67.  
  37.65   63.  
  37.70   72.  
  37.75   64.  
  37.80   60.  
  37.85   58.  
  37.90   62.  
  37.95   62.  
  38.00   63.  
  38.05   66.  
  38.10   64.  
  38.15   64.  
  38.20   64.  
  38.25   67.  
  38.30   65.  
  38.35   58.  
  38.40   64.  
  38.45   65.  
  38.50   57.  
  38.55   65.  
  38.60   68.  
  38.65   64.  
  38.70   61.  
  38.75   58.  
  38.80   59.  
  38.85   58.  
  38.90   61.  
  38.95   54.  
  39.00   55.  
  39.05   61.  
  39.10   60.  
  39.15   67.  
  39.20   66.  
  39.25   63.  
  39.30   59.  
  39.35   61.  
  39.40   61.  
  39.45   60.  
  39.50   62.  
  39.55   65.  
  39.60   67.  
  39.65   57.  
  39.70   62.  
  39.75   64.  
  39.80   61.  
  39.85   60.  
  39.90   59.  
  39.95   58.  
  40.00   60.  
  40.05   57.  
  40.10   63.  
  40.15   61.  
  40.20   61.  
  40.25   62.  
  40.30   58.  
  40.35   61.  
  40.40   59.  
  40.45   66.  
  40.50   72.  
  40.55   70.  
  40.60   82.  
  40.65   95.  
  40.70   99.  
  40.75   96.  
  40.80   90.  
  40.85   80.  
  40.90   69.  
  40.95   67.  
  41.00   59.  
  41.05   63.  
  41.10   62.  
  41.15   62.  
  41.20   54.  
  41.25   62.  
  41.30   62.  
  41.35   58.  
  41.40   60.  
  41.45   61.  
  41.50   63.  
  41.55   63.  
  41.60   60.  
  41.65   57.  
  41.70   51.  
  41.75   58.  
  41.80   59.  
  41.85   60.  
  41.90   61.  
  41.95   61.  
  42.00   58.  
  42.05   58.  
  42.10   61.  
  42.15   58.  
  42.20   59.  
  42.25   59.  
  42.30   60.  
  42.35   61.  
  42.40   59.  
  42.45   57.  
  42.50   56.  
  42.55   57.  
  42.60   55.  
  42.65   56.  
  42.70   60.  
  42.75   63.  
  42.80   60.  
  42.85   59.  
  42.90   62.  
  42.95   60.  
  43.00   61.  
  43.05   57.  
  43.10   56.  
  43.15   58.  
  43.20   57.  
  43.25   59.  
  43.30   63.  
  43.35   60.  
  43.40   64.  
  43.45   59.  
  43.50   59.  
  43.55   61.  
  43.60   64.  
  43.65   59.  
  43.70   56.  
  43.75   56.  
  43.80   55.  
  43.85   59.  
  43.90   66.  
  43.95   59.  
  44.00   60.  
  44.05   59.  
  44.10   58.  
  44.15   56.  
  44.20   58.  
  44.25   61.  
  44.30   63.  
  44.35   65.  
  44.40   63.  
  44.45   68.  
  44.50   69.  
  44.55   66.  
  44.60   58.  
  44.65   63.  
  44.70   60.  
  44.75   59.  
  44.80   55.  
  44.85   54.  
  44.90   53.  
  44.95   57.  
  45.00   56.  
  45.05   55.  
  45.10   55.  
  45.15   59.  
  45.20   60.  
  45.25   57.  
  45.30   57.  
  45.35   57.  
  45.40   59.  
  45.45   62.  
  45.50   53.  
  45.55   57.  
  45.60   56.  
  45.65   58.  
  45.70   59.  
  45.75   57.  
  45.80   58.  
  45.85   56.  
  45.90   58.  
  45.95   59.  
  46.00   60.  
  46.05   55.  
  46.10   60.  
  46.15   61.  
  46.20   57.  
  46.25   56.  
  46.30   53.  
  46.35   57.  
  46.40   55.  
  46.45   58.  
  46.50   55.  
  46.55   56.  
  46.60   53.  
  46.65   51.  
  46.70   60.  
  46.75   60.  
  46.80   58.  
  46.85   52.  
  46.90   54.  
  46.95   57.  
  47.00   53.  
  47.05   55.  
  47.10   55.  
  47.15   57.  
  47.20   56.  
  47.25   53.  
  47.30   61.  
  47.35   54.  
  47.40   58.  
  47.45   57.  
  47.50   57.  
  47.55   56.  
  47.60   58.  
  47.65   54.  
  47.70   53.  
  47.75   57.  
  47.80   59.  
  47.85   59.  
  47.90   54.  
  47.95   55.  
  48.00   60.  
  48.05   54.  
  48.10   57.  
  48.15   61.  
  48.20   59.  
  48.25   68.  
  48.30   83.  
  48.35  110.  
  48.40  160.  
  48.45  213.  
  48.50  253.  
  48.55  285.  
  48.60  266.  
  48.65  218.  
  48.70  159.  
  48.75  132.  
  48.80   86.  
  48.85   72.  
  48.90   70.  
  48.95   68.  
  49.00   65.  
  49.05   61.  
  49.10   54.  
  49.15   58.  
  49.20   62.  
  49.25   56.  
  49.30   61.  
  49.35   59.  
  49.40   56.  
  49.45   56.  
  49.50   58.  
  49.55   59.  
  49.60   59.  
  49.65   58.  
  49.70   58.  
  49.75   69.  
  49.80   72.  
  49.85   98.  
  49.90  143.  
  49.95  214.  
  50.00  272.  
  50.05  324.  
  50.10  348.  
  50.15  319.  
  50.20  253.  
  50.25  186.  
  50.30  134.  
  50.35  108.  
  50.40   86.  
  50.45   78.  
  50.50   70.  
  50.55   66.  
  50.60   61.  
  50.65   56.  
  50.70   57.  
  50.75   60.  
  50.80   60.  
  50.85   64.  
  50.90   80.  
  50.95   98.  
  51.00  131.  
  51.05  151.  
  51.10  159.  
  51.15  157.  
  51.20  124.  
  51.25  109.  
  51.30   82.  
  51.35   62.  
  51.40   57.  
  51.45   54.  
  51.50   52.  
  51.55   57.  
  51.60   52.  
  51.65   55.  
  51.70   53.  
  51.75   58.  
  51.80   53.  
  51.85   55.  
  51.90   51.  
  51.95   56.  
  52.00   59.  
  52.05   54.  
  52.10   55.  
  52.15   61.  
  52.20   70.  
  52.25   81.  
  52.30   91.  
  52.35   91.  
  52.40   91.  
  52.45   82.  
  52.50   75.  
  52.55   65.  
  52.60   58.  
  52.65   56.  
  52.70   57.  
  52.75   53.  
  52.80   53.  
  52.85   53.  
  52.90   58.  
  52.95   57.  
  53.00   51.  
  53.05   51.  
  53.10   57.  
  53.15   54.  
  53.20   56.  
  53.25   52.  
  53.30   52.  
  53.35   53.  
  53.40   56.  
  53.45   52.  
  53.50   55.  
  53.55   52.  
  53.60   55.  
  53.65   55.  
  53.70   54.  
  53.75   56.  
  53.80   58.  
  53.85   71.  
  53.90   96.  
  53.95  125.  
  54.00  157.  
  54.05  184.  
  54.10  172.  
  54.15  158.  
  54.20  115.  
  54.25   93.  
  54.30   74.  
  54.35   54.  
  54.40   52.  
  54.45   57.  
  54.50   53.  
  54.55   50.  
  54.60   56.  
  54.65   58.  
  54.70   51.  
  54.75   53.  
  54.80   55.  
  54.85   55.  
  54.90   56.  
  54.95   56.  
  55.00   53.  
  55.05   52.  
  55.10   54.  
  55.15   55.  
  55.20   56.  
  55.25   54.  
  55.30   52.  
  55.35   55.  
  55.40   48.  
  55.45   54.  
  55.50   52.  
  55.55   53.  
  55.60   56.  
  55.65   50.  
  55.70   51.  
  55.75   48.  
  55.80   53.  
  55.85   49.  
  55.90   52.  
  55.95   52.  
  56.00   52.  
  56.05   56.  
  56.10   63.  
  56.15   72.  
  56.20   77.  
  56.25   74.  
  56.30   76.  
  56.35   69.  
  56.40   65.  
  56.45   58.  
  56.50   51.  
  56.55   50.  
  56.60   53.  
  56.65   52.  
  56.70   57.  
  56.75   57.  
  56.80   55.  
  56.85   54.  
  56.90   53.  
  56.95   53.  
  57.00   52.  
  57.05   53.  
  57.10   57.  
  57.15   55.  
  57.20   60.  
  57.25   61.  
  57.30   68.  
  57.35   71.  
  57.40   76.  
  57.45   74.  
  57.50   72.  
  57.55   66.  
  57.60   60.  
  57.65   58.  
  57.70   54.  
  57.75   60.  
  57.80   53.  
  57.85   55.  
  57.90   56.  
  57.95   56.  
  58.00   60.  
  58.05   57.  
  58.10   58.  
  58.15   59.  
  58.20   64.  
  58.25   82.  
  58.30  103.  
  58.35  168.  
  58.40  279.  
  58.45  425.  
  58.50  564.  
  58.55  652.  
  58.60  642.  
  58.65  537.  
  58.70  418.  
  58.75  314.  
  58.80  250.  
  58.85  210.  
  58.90  160.  
  58.95  126.  
  59.00   91.  
  59.05   76.  
  59.10   71.  
  59.15   78.  
  59.20  108.  
  59.25  158.  
  59.30  280.  
  59.35  488.  
  59.40  717.  
  59.45  916.  
  59.50  953.  
  59.55  854.  
  59.60  634.  
  59.65  404.  
  59.70  230.  
  59.75  134.  
  59.80   93.  
  59.85   78.  
  59.90   69.  
  59.95   66.  
  60.00   63.  
  60.05   58.  
  60.10   56.  
  60.15   59.  
  60.20   54.  
  60.25   53.  
  60.30   55.  
  60.35   58.  
  60.40   62.  
  60.45   62.  
  60.50   69.  
  60.55   78.  
  60.60   81.  
  60.65   81.  
  60.70   78.  
  60.75   64.  
  60.80   59.  
  60.85   58.  
  60.90   54.  
  60.95   54.  
  61.00   53.  
  61.05   51.  
  61.10   52.  
  61.15   52.  
  61.20   49.  
  61.25   53.  
  61.30   53.  
  61.35   53.  
  61.40   50.  
  61.45   52.  
  61.50   55.  
  61.55   53.  
  61.60   53.  
  61.65   55.  
  61.70   57.  
  61.75   56.  
  61.80   55.  
  61.85   62.  
  61.90   61.  
  61.95   68.  
  62.00   95.  
  62.05  115.  
  62.10  151.  
  62.15  161.  
  62.20  171.  
  62.25  145.  
  62.30  124.  
  62.35   86.  
  62.40   67.  
  62.45   58.  
  62.50   57.  
  62.55   52.  
  62.60   54.  
  62.65   52.  
  62.70   56.  
  62.75   50.  
  62.80   51.  
  62.85   56.  
  62.90   54.  
  62.95   50.  
  63.00   50.  
  63.05   53.  
  63.10   52.  
  63.15   50.  
  63.20   54.  
  63.25   46.  
  63.30   51.  
  63.35   52.  
  63.40   53.  
  63.45   55.  
  63.50   51.  
  63.55   55.  
  63.60   59.  
  63.65   61.  
  63.70   61.  
  63.75   70.  
  63.80   69.  
  63.85   72.  
  63.90   75.  
  63.95   74.  
  64.00   71.  
  64.05   77.  
  64.10   76.  
  64.15   86.  
  64.20   72.  
  64.25   68.  
  64.30   61.  
  64.35   59.  
  64.40   51.  
  64.45   57.  
  64.50   55.  
  64.55   50.  
  64.60   53.  
  64.65   57.  
  64.70   60.  
  64.75   60.  
  64.80   74.  
  64.85  103.  
  64.90  144.  
  64.95  189.  
  65.00  225.  
  65.05  227.  
  65.10  193.  
  65.15  156.  
  65.20  107.  
  65.25   82.  
  65.30   63.  
  65.35   58.  
  65.40   59.  
  65.45   57.  
  65.50   53.  
  65.55   62.  
  65.60   58.  
  65.65   56.  
  65.70   55.  
  65.75   52.  
  65.80   57.  
  65.85   64.  
  65.90   57.  
  65.95   61.  
  66.00   60.  
  66.05   68.  
  66.10   77.  
  66.15   86.  
  66.20  118.  
  66.25  180.  
  66.30  348.  
  66.35  701.  
  66.40 1250.  
  66.45 1927.  
  66.50 2448.  
  66.55 2545.  
  66.60 2134.  
  66.65 1494.  
  66.70  849.  
  66.75  403.  
  66.80  204.  
  66.85  126.  
  66.90  101.  
  66.95   90.  
  67.00   83.  
  67.05   77.  
  67.10   78.  
  67.15   78.  
  67.20   77.  
  67.25   79.  
  67.30   67.  
  67.35   63.  
  67.40   60.  
  67.45   57.  
  67.50   59.  
  67.55   54.  
  67.60   58.  
  67.65   60.  
  67.70   61.  
  67.75   68.  
  67.80   67.  
  67.85   63.  
  67.90   64.  
  67.95   55.  
  68.00   60.  
  68.05   59.  
  68.10   56.  
  68.15   58.  
  68.20   58.  
  68.25   57.  
  68.30   57.  
  68.35   59.  
  68.40   56.  
  68.45   53.  
  68.50   51.  
  68.55   56.  
  68.60   54.  
  68.65   53.  
  68.70   56.  
  68.75   61.  
  68.80   59.  
  68.85   60.  
  68.90   66.  
  68.95   69.  
  69.00   74.  
  69.05   71.  
  69.10   73.  
  69.15   70.  
  69.20   66.  
  69.25   66.  
  69.30   57.  
  69.35   53.  
  69.40   58.  
  69.45   53.  
  69.50   46.  
  69.55   52.  
  69.60   54.  
  69.65   51.  
  69.70   50.  
  69.75   50.  
  69.80   51.  
  69.85   50.  
  69.90   51.  
  69.95   50.  
  70.00   50.  
  70.05   49.  
  70.10   48.  
  70.15   51.  
  70.20   49.  
  70.25   51.  
  70.30   50.  
  70.35   49.  
  70.40   47.  
  70.45   48.  
  70.50   49.  
  70.55   50.  
  70.60   50.  
  70.65   53.  
  70.70   56.  
  70.75   61.  
  70.80   63.  
  70.85   57.  
  70.90   60.  
  70.95   53.  
  71.00   50.  
  71.05   49.  
  71.10   48.  
  71.15   52.  
  71.20   51.  
  71.25   47.  
  71.30   48.  
  71.35   48.  
  71.40   45.  
  71.45   51.  
  71.50   47.  
  71.55   50.  
  71.60   53.  
  71.65   52.  
  71.70   47.  
  71.75   51.  
  71.80   53.  
  71.85   56.  
  71.90   55.  
  71.95   53.  
  72.00   60.  
  72.05   61.  
  72.10   66.  
  72.15   88.  
  72.20  129.  
  72.25  223.  
  72.30  346.  
  72.35  469.  
  72.40  544.  
  72.45  563.  
  72.50  527.  
  72.55  476.  
  72.60  420.  
  72.65  369.  
  72.70  274.  
  72.75  190.  
  72.80  125.  
  72.85   83.  
  72.90   64.  
  72.95   57.  
  73.00   51.  
  73.05   51.  
  73.10   50.  
  73.15   51.  
  73.20   47.  
  73.25   51.  
  73.30   47.  
  73.35   52.  
  73.40   50.  
  73.45   48.  
  73.50   48.  
  73.55   48.  
  73.60   49.  
  73.65   49.  
  73.70   53.  
  73.75   50.  
  73.80   49.  
  73.85   43.  
  73.90   48.  
  73.95   46.  
  74.00   45.  
  74.05   45.  
  74.10   47.  
  74.15   48.  
  74.20   47.  
  74.25   47.  
  74.30   47.  
  74.35   44.  
  74.40   45.  
  74.45   47.  
  74.50   48.  
  74.55   45.  
  74.60   44.  
  74.65   46.  
  74.70   45.  
  74.75   43.  
  74.80   45.  
  74.85   54.  
  74.90   47.  
  74.95   44.  
  75.00   46.  
  75.05   43.  
  75.10   47.  
  75.15   44.  
  75.20   40.  
  75.25   45.  
  75.30   45.  
  75.35   44.  
  75.40   45.  
  75.45   45.  
  75.50   42.  
  75.55   46.  
  75.60   44.  
  75.65   44.  
  75.70   45.  
  75.75   47.  
  75.80   45.  
  75.85   45.  
  75.90   46.  
  75.95   46.  
  76.00   44.  
  76.05   46.  
  76.10   47.  
  76.15   46.  
  76.20   45.  
  76.25   46.  
  76.30   45.  
  76.35   41.  
  76.40   42.  
  76.45   42.  
  76.50   47.  
  76.55   45.  
  76.60   44.  
  76.65   42.  
  76.70   40.  
  76.75   43.  
  76.80   49.  
  76.85   44.  
  76.90   48.  
  76.95   52.  
  77.00   40.  
  77.05   48.  
  77.10   45.  
  77.15   44.  
  77.20   48.  
  77.25   43.  
  77.30   43.  
  77.35   43.  
  77.40   44.  
  77.45   41.  
  77.50   43.  
  77.55   43.  
  77.60   48.  
  77.65   48.  
  77.70   47.  
  77.75   54.  
  77.80   59.  
  77.85   59.  
  77.90   66.  
  77.95   72.  
  78.00   64.  
  78.05   53.  
  78.10   50.  
  78.15   46.  
  78.20   45.  
  78.25   46.  
  78.30   40.  
  78.35   49.  
  78.40   41.  
  78.45   45.  
  78.50   45.  
  78.55   43.  
  78.60   46.  
  78.65   44.  
  78.70   42.  
  78.75   43.  
  78.80   39.  
  78.85   41.  
  78.90   41.  
  78.95   44.  
  79.00   46.  
  79.05   48.  
  79.10   45.  
  79.15   47.  
  79.20   46.  
  79.25   47.  
  79.30   46.  
  79.35   50.  
  79.40   55.  
  79.45   61.  
  79.50   82.  
  79.55  114.  
  79.60  147.  
  79.65  176.  
  79.70  192.  
  79.75  174.  
  79.80  128.  
  79.85   94.  
  79.90   68.  
  79.95   56.  
  80.00   46.  
  80.05   46.  
  80.10   46.  
  80.15   46.  
  80.20   44.  
  80.25   42.  
  80.30   44.  
  80.35   44.  
  80.40   43.  
  80.45   47.  
  80.50   48.  
  80.55   53.  
  80.60   59.  
  80.65   69.  
  80.70   67.  
  80.75   61.  
  80.80   51.  
  80.85   52.  
  80.90   50.  
  80.95   49.  
  81.00   41.  
  81.05   41.  
  81.10   41.  
  81.15   43.  
  81.20   43.  
  81.25   42.  
  81.30   43.  
  81.35   45.  
  81.40   49.  
  81.45   51.  
  81.50   45.  
  81.55   49.  
  81.60   46.  
  81.65   47.  
  81.70   42.  
  81.75   44.  
  81.80   41.  
  81.85   43.  
  81.90   43.  
  81.95   40.  
  82.00   42.  
  82.05   41.  
  82.10   44.  
  82.15   46.  
  82.20   46.  
  82.25   46.  
  82.30   50.  
  82.35   60.  
  82.40   65.  
  82.45   71.  
  82.50   70.  
  82.55   60.  
  82.60   55.  
  82.65   47.  
  82.70   49.  
  82.75   47.  
  82.80   46.  
  82.85   51.  
  82.90   50.  
  82.95   49.  
  83.00   43.  
  83.05   43.  
  83.10   42.  
  83.15   42.  
  83.20   45.  
  83.25   41.  
  83.30   44.  
  83.35   43.  
  83.40   42.  
  83.45   43.  
  83.50   42.  
  83.55   45.  
  83.60   48.  
  83.65   43.  
  83.70   50.  
  83.75   63.  
  83.80   69.  
  83.85   67.  
  83.90   65.  
  83.95   60.  
  84.00   49.  
  84.05   42.  
  84.10   40.  
  84.15   41.  
  84.20   40.  
  84.25   41.  
  84.30   41.  
  84.35   42.  
  84.40   42.  
  84.45   34.  
  84.50   38.  
  84.55   44.  
  84.60   43.  
  84.65   41.  
  84.70   43.  
  84.75   41.  
  84.80   42.  
  84.85   42.  
  84.90   42.  
  84.95   40.  
  85.00   41.  
  85.05   40.  
  85.10   40.  
  85.15   41.  
  85.20   45.  
  85.25   39.  
  85.30   43.  
  85.35   45.  
  85.40   46.  
  85.45   52.  
  85.50   55.  
  85.55   62.  
  85.60   60.  
  85.65   63.  
  85.70   62.  
  85.75   54.  
  85.80   49.  
  85.85   45.  
  85.90   44.  
  85.95   43.  
  86.00   43.  
  86.05   44.  
  86.10   41.  
  86.15   43.  
  86.20   41.  
  86.25   42.  
  86.30   51.  
  86.35   46.  
  86.40   49.  
  86.45   49.  
  86.50   49.  
  86.55   49.  
  86.60   41.  
  86.65   41.  
  86.70   39.  
  86.75   36.  
  86.80   40.  
  86.85   38.  
  86.90   43.  
  86.95   39.  
  87.00   38.  
  87.05   43.  
  87.10   42.  
  87.15   44.  
  87.20   42.  
  87.25   45.  
  87.30   45.  
  87.35   44.  
  87.40   42.  
  87.45   46.  
  87.50   48.  
  87.55   62.  
  87.60   90.  
  87.65  128.  
  87.70  174.  
  87.75  208.  
  87.80  210.  
  87.85  180.  
  87.90  124.  
  87.95  101.  
  88.00   78.  
  88.05   70.  
  88.10   90.  
  88.15  138.  
  88.20  238.  
  88.25  411.  
  88.30  610.  
  88.35  755.  
  88.40  761.  
  88.45  614.  
  88.50  425.  
  88.55  259.  
  88.60  143.  
  88.65   94.  
  88.70   70.  
  88.75   60.  
  88.80   57.  
  88.85   48.  
  88.90   53.  
  88.95   47.  
  89.00   47.  
  89.05   51.  
  89.10   47.  
  89.15   48.  
  89.20   45.  
  89.25   44.  
  89.30   43.  
  89.35   45.  
  89.40   46.  
  89.45   48.  
  89.50   47.  
  89.55   51.  
  89.60   58.  
  89.65   64.  
  89.70   73.  
  89.75   78.  
  89.80   79.  
  89.85   70.  
  89.90   60.  
  89.95   49.  
  90.00   46.  
  90.05   43.  
  90.10   40.  
  90.15   43.  
  90.20   43.  
  90.25   45.  
  90.30   41.  
  90.35   43.  
  90.40   40.  
  90.45   39.  
  90.50   38.  
  90.55   42.  
  90.60   42.  
  90.65   38.  
  90.70   38.  
  90.75   42.  
  90.80   38.  
  90.85   41.  
  90.90   39.  
  90.95   39.  
  91.00   42.  
  91.05   40.  
  91.10   38.  
  91.15   43.  
  91.20   39.  
  91.25   41.  
  91.30   38.  
  91.35   40.  
  91.40   40.  
  91.45   38.  
  91.50   41.  
  91.55   39.  
  91.60   43.  
  91.65   45.  
  91.70   51.  
  91.75   46.  
  91.80   45.  
  91.85   40.  
  91.90   40.  
  91.95   41.  
  92.00   39.  
  92.05   40.  
  92.10   38.  
  92.15   44.  
  92.20   41.  
  92.25   39.  
  92.30   37.  
  92.35   40.  
  92.40   35.  
  92.45   36.  
  92.50   41.  
  92.55   39.  
  92.60   40.  
  92.65   39.  
  92.70   39.  
  92.75   42.  
  92.80   39.  
  92.85   42.  
  92.90   42.  
  92.95   42.  
  93.00   48.  
  93.05   50.  
  93.10   66.  
  93.15   92.  
  93.20  116.  
  93.25  124.  
  93.30  123.  
  93.35  107.  
  93.40   79.  
  93.45   60.  
  93.50   51.  
  93.55   46.  
  93.60   43.  
  93.65   40.  
  93.70   42.  
  93.75   40.  
  93.80   38.  
  93.85   43.  
  93.90   45.  
  93.95   42.  
  94.00   41.  
  94.05   40.  
  94.10   41.  
  94.15   43.  
  94.20   48.  
  94.25   56.  
  94.30   74.  
  94.35   93.  
  94.40  108.  
  94.45  117.  
  94.50  104.  
  94.55   86.  
  94.60   64.  
  94.65   51.  
  94.70   45.  
  94.75   48.  
  94.80   41.  
  94.85   41.  
  94.90   41.  
  94.95   42.  
  95.00   45.  
  95.05   51.  
  95.10   64.  
  95.15   78.  
  95.20   86.  
  95.25   82.  
  95.30   77.  
  95.35   60.  
  95.40   52.  
  95.45   41.  
  95.50   41.  
  95.55   40.  
  95.60   44.  
  95.65   40.  
  95.70   37.  
  95.75   39.  
  95.80   37.  
  95.85   40.  
  95.90   41.  
  95.95   41.  
  96.00   40.  
  96.05   40.  
  96.10   44.  
  96.15   47.  
  96.20   45.  
  96.25   49.  
  96.30   47.  
  96.35   45.  
  96.40   41.  
  96.45   40.  
  96.50   41.  
  96.55   40.  
  96.60   43.  
  96.65   40.  
  96.70   42.  
  96.75   44.  
  96.80   39.  
  96.85   43.  
  96.90   42.  
  96.95   36.  
  97.00   38.  
  97.05   41.  
  97.10   38.  
  97.15   39.  
  97.20   44.  
  97.25   40.  
  97.30   43.  
  97.35   43.  
  97.40   53.  
  97.45   66.  
  97.50   84.  
  97.55   98.  
  97.60  105.  
  97.65   98.  
  97.70   80.  
  97.75   61.  
  97.80   49.  
  97.85   44.  
  97.90   41.  
  97.95   40.  
  98.00   40.  
  98.05   42.  
  98.10   40.  
  98.15   37.  
  98.20   35.  
  98.25   43.  
  98.30   43.  
  98.35   47.  
  98.40   52.  
  98.45   78.  
  98.50   87.  
  98.55  108.  
  98.60  123.  
  98.65  119.  
  98.70   97.  
  98.75   72.  
  98.80   61.  
  98.85   47.  
  98.90   45.  
  98.95   42.  
  99.00   40.  
  99.05   36.  
  99.10   39.  
  99.15   40.  
  99.20   45.  
  99.25   43.  
  99.30   38.  
  99.35   47.  
  99.40   44.  
  99.45   45.  
  99.50   43.  
  99.55   42.  
  99.60   42.  
  99.65   36.  
  99.70   38.  
  99.75   41.  
  99.80   39.  
  99.85   41.  
  99.90   38.  
  99.95   40.  
 100.00   39.  
 100.05   43.  
 100.10   41.  
 100.15   40.  
 100.20   42.  
 100.25   41.  
 100.30   47.  
 100.35   50.  
 100.40   49.  
 100.45   52.  
 100.50   41.  
 100.55   45.  
 100.60   42.  
 100.65   40.  
 100.70   41.  
 100.75   38.  
 100.80   37.  
 100.85   38.  
 100.90   41.  
 100.95   44.  
 101.00   43.  
 101.05   42.  
 101.10   40.  
 101.15   41.  
 101.20   39.  
 101.25   46.  
 101.30   47.  
 101.35   60.  
 101.40   81.  
 101.45  119.  
 101.50  156.  
 101.55  186.  
 101.60  185.  
 101.65  161.  
 101.70  115.  
 101.75   77.  
 101.80   62.  
 101.85   47.  
 101.90   41.  
 101.95   46.  
 102.00   39.  
 102.05   38.  
 102.10   38.  
 102.15   38.  
 102.20   38.  
 102.25   40.  
 102.30   39.  
 102.35   38.  
 102.40   40.  
 102.45   38.  
 102.50   37.  
 102.55   39.  
 102.60   36.  
 102.65   41.  
 102.70   42.  
 102.75   38.  
 102.80   40.  
 102.85   43.  
 102.90   43.  
 102.95   44.  
 103.00   47.  
 103.05   53.  
 103.10   70.  
 103.15   87.  
 103.20   93.  
 103.25   94.  
 103.30   86.  
 103.35   78.  
 103.40   88.  
 103.45  116.  
 103.50  146.  
 103.55  197.  
 103.60  222.  
 103.65  214.  
 103.70  173.  
 103.75  138.  
 103.80   98.  
 103.85   67.  
 103.90   56.  
 103.95   47.  
 104.00   42.  
 104.05   44.  
 104.10   44.  
 104.15   45.  
 104.20   44.  
 104.25   44.  
 104.30   45.  
 104.35   42.  
 104.40   43.  
 104.45   47.  
 104.50   49.  
 104.55   56.  
 104.60   49.  
 104.65   52.  
 104.70   52.  
 104.75   48.  
 104.80   46.  
 104.85   44.  
 104.90   39.  
 104.95   42.  
 105.00   38.  
 105.05   40.  
 105.10   40.  
 105.15   36.  
 105.20   34.  
 105.25   39.  
 105.30   41.  
 105.35   38.  
 105.40   37.  
 105.45   37.  
 105.50   36.  
 105.55   37.  
 105.60   38.  
 105.65   40.  
 105.70   40.  
 105.75   37.  
 105.80   39.  
 105.85   42.  
 105.90   33.  
 105.95   35.  
 106.00   38.  
 106.05   40.  
 106.10   38.  
 106.15   40.  
 106.20   37.  
 106.25   40.  
 106.30   37.  
 106.35   38.  
 106.40   38.  
 106.45   40.  
 106.50   37.  
 106.55   37.  
 106.60   42.  
 106.65   34.  
 106.70   43.  
 106.75   40.  
 106.80   40.  
 106.85   43.  
 106.90   41.  
 106.95   43.  
 107.00   45.  
 107.05   55.  
 107.10   74.  
 107.15   94.  
 107.20  116.  
 107.25  133.  
 107.30  131.  
 107.35  108.  
 107.40   81.  
 107.45   65.  
 107.50   49.  
 107.55   46.  
 107.60   44.  
 107.65   45.  
 107.70   41.  
 107.75   45.  
 107.80   40.  
 107.85   40.  
 107.90   38.  
 107.95   39.  
 108.00   38.  
 108.05   38.  
 108.10   40.  
 108.15   40.  
 108.20   43.  
 108.25   40.  
 108.30   38.  
 108.35   39.  
 108.40   38.  
 108.45   42.  
 108.50   38.  
 108.55   40.  
 108.60   38.  
 108.65   42.  
 108.70   39.  
 108.75   38.  
 108.80   37.  
 108.85   38.  
 108.90   42.  
 108.95   38.  
 109.00   43.  
 109.05   51.  
 109.10   55.  
 109.15   72.  
 109.20   98.  
 109.25  129.  
 109.30  153.  
 109.35  157.  
 109.40  136.  
 109.45  107.  
 109.50   84.  
 109.55   66.  
 109.60   50.  
 109.65   42.  
 109.70   49.  
 109.75   43.  
 109.80   40.  
 109.85   39.  
 109.90   41.  
 109.95   37.  
 110.00   38.  
 110.05   40.  
 110.10   41.  
 110.15   40.  
 110.20   40.  
 110.25   38.  
 110.30   40.  
 110.35   39.  
 110.40   40.  
 110.45   39.  
 110.50   39.  
 110.55   36.  
 110.60   42.  
 110.65   45.  
 110.70   44.  
 110.75   45.  
 110.80   50.  
 110.85   45.  
 110.90   44.  
 110.95   43.  
 111.00   40.  
 111.05   46.  
 111.10   43.  
 111.15   44.  
 111.20   45.  
 111.25   39.  
 111.30   41.  
 111.35   41.  
 111.40   39.  
 111.45   43.  
 111.50   44.  
 111.55   38.  
 111.60   40.  
 111.65   43.  
 111.70   41.  
 111.75   41.  
 111.80   41.  
 111.85   42.  
 111.90   42.  
 111.95   40.  
 112.00   38.  
 112.05   40.  
 112.10   39.  
 112.15   38.  
 112.20   44.  
 112.25   43.  
 112.30   39.  
 112.35   38.  
 112.40   43.  
 112.45   42.  
 112.50   44.  
 112.55   43.  
 112.60   45.  
 112.65   42.  
 112.70   43.  
 112.75   42.  
 112.80   45.  
 112.85   43.  
 112.90   40.  
 112.95   39.  
 113.00   43.  
 113.05   42.  
 113.10   42.  
 113.15   42.  
 113.20   42.  
 113.25   38.  
 113.30   41.  
 113.35   41.  
 113.40   40.  
 113.45   45.  
 113.50   42.  
 113.55   42.  
 113.60   39.  
 113.65   41.  
 113.70   41.  
 113.75   39.  
 113.80   38.  
 113.85   43.  
 113.90   39.  
 113.95   40.  
 114.00   39.  
 114.05   38.  
 114.10   41.  
 114.15   40.  
 114.20   42.  
 114.25   42.  
 114.30   48.  
 114.35   43.  
 114.40   48.  
 114.45   50.  
 114.50   56.  
 114.55   66.  
 114.60   76.  
 114.65  100.  
 114.70  139.  
 114.75  182.  
 114.80  205.  
 114.85  221.  
 114.90  204.  
 114.95  165.  
 115.00  124.  
 115.05  102.  
 115.10   83.  
 115.15   65.  
 115.20   59.  
 115.25   55.  
 115.30   59.  
 115.35   57.  
 115.40   59.  
 115.45   67.  
 115.50   80.  
 115.55   90.  
 115.60  115.  
 115.65  182.  
 115.70  316.  
 115.75  564.  
 115.80  896.  
 115.85 1179.  
 115.90 1312.  
 115.95 1247.  
 116.00  993.  
 116.05  676.  
 116.10  413.  
 116.15  240.  
 116.20  147.  
 116.25  109.  
 116.30   92.  
 116.35   80.  
 116.40   69.  
 116.45   65.  
 116.50   63.  
 116.55   57.  
 116.60   57.  
 116.65   55.  
 116.70   51.  
 116.75   51.  
 116.80   51.  
 116.85   53.  
 116.90   50.  
 116.95   50.  
 117.00   46.  
 117.05   47.  
 117.10   54.  
 117.15   52.  
 117.20   52.  
 117.25   49.  
 117.30   48.  
 117.35   46.  
 117.40   45.  
 117.45   47.  
 117.50   50.  
 117.55   51.  
 117.60   55.  
 117.65   66.  
 117.70   82.  
 117.75  114.  
 117.80  145.  
 117.85  183.  
 117.90  207.  
 117.95  206.  
 118.00  186.  
 118.05  152.  
 118.10  117.  
 118.15   90.  
 118.20   74.  
 118.25   61.  
 118.30   59.  
 118.35   55.  
 118.40   51.  
 118.45   48.  
 118.50   47.  
 118.55   47.  
 118.60   46.  
 118.65   43.  
 118.70   44.  
 118.75   42.  
 118.80   43.  
 118.85   46.  
 118.90   41.  
 118.95   45.  
 119.00   49.  
 119.05   56.  
 119.10   73.  
 119.15   88.  
 119.20  100.  
 119.25  109.  
 119.30  109.  
 119.35  103.  
 119.40   93.  
 119.45   71.  
 119.50   63.  
 119.55   59.  
 119.60   51.  
 119.65   46.  
 119.70   43.  
 119.75   44.  
 119.80   42.  
 119.85   39.  
 119.90   42.  
 119.95   38.  
 120.00   39.  
 120.05   44.  
 120.10   42.  
 120.15   46.  
 120.20   46.  
 120.25   45.  
 120.30   45.  
 120.35   58.  
 120.40   66.  
 120.45   86.  
 120.50  111.  
 120.55  125.  
 120.60  126.  
 120.65  130.  
 120.70  113.  
 120.75   93.  
 120.80   75.  
 120.85   62.  
 120.90   54.  
 120.95   48.  
 121.00   45.  
 121.05   41.  
 121.10   38.  
 121.15   40.  
 121.20   42.  
 121.25   42.  
 121.30   43.  
 121.35   43.  
 121.40   40.  
 121.45   39.  
 121.50   43.  
 121.55   41.  
 121.60   43.  
 121.65   43.  
 121.70   39.  
 121.75   39.  
 121.80   45.  
 121.85   41.  
 121.90   37.  
 121.95   42.  
 122.00   40.  
 122.05   40.  
 122.10   43.  
 122.15   42.  
 122.20   41.  
 122.25   36.  
 122.30   37.  
 122.35   40.  
 122.40   38.  
 122.45   40.  
 122.50   42.  
 122.55   40.  
 122.60   40.  
 122.65   39.  
 122.70   37.  
 122.75   36.  
 122.80   40.  
 122.85   39.  
 122.90   38.  
 122.95   37.  
 123.00   39.  
 123.05   39.  
 123.10   41.  
 123.15   38.  
 123.20   38.  
 123.25   42.  
 123.30   42.  
 123.35   38.  
 123.40   40.  
 123.45   37.  
 123.50   38.  
 123.55   44.  
 123.60   42.  
 123.65   47.  
 123.70   53.  
 123.75   55.  
 123.80   57.  
 123.85   57.  
 123.90   59.  
 123.95   57.  
 124.00   55.  
 124.05   56.  
 124.10   52.  
 124.15   51.  
 124.20   46.  
 124.25   45.  
 124.30   46.  
 124.35   42.  
 124.40   42.  
 124.45   39.  
 124.50   42.  
 124.55   47.  
 124.60   47.  
 124.65   51.  
 124.70   54.  
 124.75   62.  
 124.80   61.  
 124.85   59.  
 124.90   54.  
 124.95   47.  
 125.00   44.  
 125.05   41.  
 125.10   42.  
 125.15   44.  
 125.20   42.  
 125.25   45.  
 125.30   44.  
 125.35   43.  
 125.40   43.  
 125.45   46.  
 125.50   48.  
 125.55   51.  
 125.60   61.  
 125.65   73.  
 125.70   95.  
 125.75  143.  
 125.80  231.  
 125.85  340.  
 125.90  466.  
 125.95  585.  
 126.00  624.  
 126.05  610.  
 126.10  544.  
 126.15  431.  
 126.20  317.  
 126.25  243.  
 126.30  152.  
 126.35  119.  
 126.40   89.  
 126.45   71.  
 126.50   66.  
 126.55   57.  
 126.60   55.  
 126.65   51.  
 126.70   48.  
 126.75   49.  
 126.80   47.  
 126.85   48.  
 126.90   43.  
 126.95   45.  
 127.00   45.  
 127.05   41.  
 127.10   41.  
 127.15   43.  
 127.20   45.  
 127.25   41.  
 127.30   44.  
 127.35   44.  
 127.40   39.  
 127.45   39.  
 127.50   39.  
 127.55   43.  
 127.60   46.  
 127.65   42.  
 127.70   42.  
 127.75   43.  
 127.80   44.  
 127.85   41.  
 127.90   41.  
 127.95   42.  
 128.00   40.  
 128.05   39.  
 128.10   38.  
 128.15   36.  
 128.20   36.  
 128.25   37.  
 128.30   38.  
 128.35   38.  
 128.40   37.  
 128.45   39.  
 128.50   36.  
 128.55   34.  
 128.60   35.  
 128.65   41.  
 128.70   39.  
 128.75   37.  
 128.80   39.  
 128.85   41.  
 128.90   35.  
 128.95   38.  
 129.00   40.  
 129.05   37.  
 129.10   37.  
 129.15   35.  
 129.20   39.  
 129.25   39.  
 129.30   39.  
 129.35   41.  
 129.40   39.  
 129.45   34.  
 129.50   35.  
 129.55   36.  
 129.60   37.  
 129.65   37.  
 129.70   38.  
 129.75   40.  
 129.80   41.  
 129.85   42.  
 129.90   42.  
 129.95   42.  
 130.00   44.  
 130.05   47.  
 130.10   42.  
 130.15   44.  
 130.20   40.  
 130.25   38.  
 130.30   39.  
 130.35   38.  
 130.40   37.  
 130.45   38.  
 130.50   38.  
 130.55   36.  
 130.60   37.  
 130.65   39.  
 130.70   39.  
 130.75   37.  
 130.80   38.  
 130.85   39.  
 130.90   39.  
 130.95   42.  
 131.00   38.  
 131.05   40.  
 131.10   40.  
 131.15   41.  
 131.20   40.  
 131.25   40.  
 131.30   39.  
 131.35   37.  
 131.40   35.  
 131.45   35.  
 131.50   34.  
 131.55   37.  
 131.60   40.  
 131.65   36.  
 131.70   37.  
 131.75   36.  
 131.80   41.  
 131.85   38.  
 131.90   35.  
 131.95   34.  
 132.00   39.  
 132.05   37.  
 132.10   33.  
 132.15   34.  
 132.20   36.  
 132.25   37.  
 132.30   39.  
 132.35   37.  
 132.40   40.  
 132.45   39.  
 132.50   40.  
 132.55   41.  
 132.60   39.  
 132.65   36.  
 132.70   39.  
 132.75   37.  
 132.80   41.  
 132.85   39.  
 132.90   39.  
 132.95   36.  
 133.00   39.  
 133.05   40.  
 133.10   39.  
 133.15   36.  
 133.20   35.  
 133.25   36.  
 133.30   39.  
 133.35   39.  
 133.40   35.  
 133.45   35.  
 133.50   36.  
 133.55   38.  
 133.60   38.  
 133.65   38.  
 133.70   41.  
 133.75   39.  
 133.80   40.  
 133.85   38.  
 133.90   38.  
 133.95   40.  
 134.00   39.  
 134.05   40.  
 134.10   37.  
 134.15   39.  
 134.20   38.  
 134.25   40.  
 134.30   40.  
 134.35   36.  
 134.40   38.  
 134.45   40.  
 134.50   39.  
 134.55   41.  
 134.60   42.  
 134.65   42.  
 134.70   40.  
 134.75   40.  
 134.80   40.  
 134.85   40.  
 134.90   40.  
 134.95   40.  
 135.00   43.  
 135.05   41.  
 135.10   43.  
 135.15   44.  
 135.20   47.  
 135.25   49.  
 135.30   54.  
 135.35   63.  
 135.40   75.  
 135.45   83.  
 135.50   95.  
 135.55  101.  
 135.60   97.  
 135.65   93.  
 135.70   88.  
 135.75   85.  
 135.80   80.  
 135.85   63.  
 135.90   58.  
 135.95   51.  
 136.00   50.  
 136.05   50.  
 136.10   47.  
 136.15   42.  
 136.20   48.  
 136.25   50.  
 136.30   51.  
 136.35   50.  
 136.40   55.  
 136.45   56.  
 136.50   73.  
 136.55   85.  
 136.60   99.  
 136.65  110.  
 136.70  117.  
 136.75  122.  
 136.80  116.  
 136.85  115.  
 136.90  100.  
 136.95   89.  
 137.00   80.  
 137.05   72.  
 137.10   61.  
 137.15   50.  
 137.20   48.  
 137.25   44.  
 137.30   49.  
 137.35   48.  
 137.40   44.  
 137.45   41.  
 137.50   45.  
 137.55   42.  
 137.60   40.  
 137.65   44.  
 137.70   45.  
 137.75   42.  
 137.80   44.  
 137.85   45.  
 137.90   39.  
 137.95   41.  
 138.00   41.  
 138.05   44.  
 138.10   48.  
 138.15   47.  
 138.20   43.  
 138.25   45.  
 138.30   47.  
 138.35   51.  
 138.40   48.  
 138.45   46.  
 138.50   51.  
 138.55   46.  
 138.60   51.  
 138.65   48.  
 138.70   41.  
 138.75   48.  
 138.80   44.  
 138.85   40.  
 138.90   40.  
 138.95   43.  
 139.00   43.  
 139.05   43.  
 139.10   41.  
 139.15   43.  
 139.20   42.  
 139.25   46.  
 139.30   41.  
 139.35   43.  
 139.40   43.  
 139.45   42.  
 139.50   40.  
 139.55   41.  
 139.60   40.  
 139.65   43.  
 139.70   44.  
 139.75   39.  
 139.80   43.  
 139.85   42.  
 139.90   38.  
 139.95   44.  
 140.00   45.  
 140.05   47.  
 140.10   48.  
 140.15   48.  
 140.20   45.  
 140.25   47.  
 140.30   45.  
 140.35   53.  
 140.40   55.  
 140.45   64.  
 140.50   70.  
 140.55   84.  
 140.60  105.  
 140.65  138.  
 140.70  163.  
 140.75  193.  
 140.80  205.  
 140.85  219.  
 140.90  226.  
 140.95  218.  
 141.00  213.  
 141.05  190.  
 141.10  174.  
 141.15  144.  
 141.20  128.  
 141.25  108.  
 141.30   88.  
 141.35   82.  
 141.40   72.  
 141.45   63.  
 141.50   59.  
 141.55   55.  
 141.60   55.  
 141.65   53.  
 141.70   58.  
 141.75   52.  
 141.80   48.  
 141.85   49.  
 141.90   51.  
 141.95   49.  
 142.00   51.  
 142.05   51.  
 142.10   49.  
 142.15   50.  
 142.20   48.  
 142.25   45.  
 142.30   47.  
 142.35   46.  
 142.40   45.  
 142.45   48.  
 142.50   46.  
 142.55   44.  
 142.60   42.  
 142.65   49.  
 142.70   47.  
 142.75   44.  
 142.80   44.  
 142.85   43.  
 142.90   44.  
 142.95   45.  
 143.00   49.  
 143.05   43.  
 143.10   45.  
 143.15   43.  
 143.20   46.  
 143.25   44.  
 143.30   48.  
 143.35   45.  
 143.40   46.  
 143.45   45.  
 143.50   46.  
 143.55   45.  
 143.60   44.  
 143.65   43.  
 143.70   44.  
 143.75   44.  
 143.80   44.  
 143.85   44.  
 143.90   46.  
 143.95   44.  
 144.00   46.  
 144.05   46.  
 144.10   44.  
 144.15   45.  
 144.20   46.  
 144.25   43.  
 144.30   44.  
 144.35   45.  
 144.40   48.  
 144.45   50.  
 144.50   47.  
 144.55   44.  
 144.60   41.  
 144.65   46.  
 144.70   49.  
 144.75   46.  
 144.80   48.  
 144.85   43.  
 144.90   47.  
 144.95   41.  
 145.00   49.  
 145.05   50.  
 145.10   47.  
 145.15   47.  
 145.20   43.  
 145.25   42.  
 145.30   43.  
 145.35   45.  
 145.40   46.  
 145.45   46.  
 145.50   49.  
 145.55   42.  
 145.60   43.  
 145.65   46.  
 145.70   46.  
 145.75   46.  
 145.80   46.  
 145.85   45.  
 145.90   44.  
 145.95   48.  
 146.00   54.  
 146.05   47.  
 146.10   44.  
 146.15   47.  
 146.20   50.  
 146.25   47.  
 146.30   46.  
 146.35   49.  
 146.40   48.  
 146.45   46.  
 146.50   52.  
 146.55   48.  
 146.60   47.  
 146.65   49.  
 146.70   50.  
 146.75   47.  
 146.80   47.  
 146.85   48.  
 146.90   46.  
 146.95   48.  
 147.00   47.  
 147.05   47.  
 147.10   50.  
 147.15   53.  
 147.20   54.  
 147.25   52.  
 147.30   54.  
 147.35   56.  
 147.40   55.  
 147.45   62.  
 147.50   68.  
 147.55   75.  
 147.60   87.  
 147.65  106.  
 147.70  132.  
 147.75  149.  
 147.80  154.  
 147.85  182.  
 147.90  193.  
 147.95  195.  
 148.00  196.  
 148.05  203.  
 148.10  191.  
 148.15  184.  
 148.20  177.  
 148.25  151.  
 148.30  139.  
 148.35  129.  
 148.40  106.  
 148.45   91.  
 148.50   83.  
 148.55   74.  
 148.60   66.  
 148.65   62.  
 148.70   55.  
 148.75   55.  
 148.80   51.  
 148.85   54.  
 148.90   55.  
 148.95   54.  
 149.00   56.  
 149.05   49.  
 149.10   52.  
 149.15   54.  
 149.20   56.  
 149.25   47.  
 149.30   50.  
 149.35   52.  
 149.40   48.  
 149.45   51.  
 149.50   51.  
 149.55   45.  
 149.60   46.  
 149.65   48.  
 149.70   45.  
 149.75   44.  
 149.80   45.  
 149.85   48.  
 149.90   47.  
 149.95   50.  
 150.00   42.  
 150.05   47.  
 150.10   48.  
 150.15   47.  
 150.20   44.  
 150.25   51.  
 150.30   47.  
 150.35   49.  
 150.40   46.  
 150.45   49.  
 150.50   48.  
 150.55   48.  
 150.60   46.  
 150.65   54.  
 150.70   50.  
 150.75   49.  
 150.80   45.  
 150.85   46.  
 150.90   52.  
 150.95   52.  
 151.00   49.  
 151.05   46.  
 151.10   46.  
 151.15   47.  
 151.20   50.  
 151.25   52.  
 151.30   51.  
 151.35   49.  
 151.40   51.  
 151.45   48.  
 151.50   47.  
 151.55   48.  
 151.60   53.  
 151.65   53.  
 151.70   49.  
 151.75   52.  
 151.80   45.  
 151.85   52.  
 151.90   52.  
 151.95   55.  
 152.00   54.  
 152.05   49.  
 152.10   59.  
 152.15   52.  
 152.20   47.  
 152.25   51.  
 152.30   48.  
 152.35   54.  
 152.40   51.  
 152.45   51.  
 152.50   50.  
 152.55   50.  
 152.60   48.  
 152.65   50.  
 152.70   49.  
 152.75   50.  
 152.80   43.  
 152.85   48.  
 152.90   47.  
 152.95   55.  
 153.00   56.  
 153.05   54.  
 153.10   58.  
 153.15   53.  
 153.20   51.  
 153.25   52.  
 153.30   50.  
 153.35   53.  
 153.40   50.  
 153.45   52.  
 153.50   49.  
 153.55   54.  
 153.60   55.  
 153.65   55.  
 153.70   57.  
 153.75   59.  
 153.80   57.  
 153.85   61.  
 153.90   59.  
 153.95   73.  
 154.00   57.  
 154.05   60.  
 154.10   55.  
 154.15   58.  
 154.20   63.  
 154.25   58.  
 154.30   57.  
 154.35   58.  
 154.40   57.  
 154.45   48.  
 154.50   46.  
 154.55   51.  
 154.60   55.  
 154.65   56.  
 154.70   50.  
 154.75   54.  
 154.80   43.  
 154.85   56.  
 154.90   58.  
 154.95   50.  
 155.00   49.  
 155.05   52.  
 155.10   64.  
 155.15   67.  
 155.20   57.  
 155.25   57.  
 155.30   58.  
 155.35   52.  
 155.40   60.  
 155.45   59.  
 155.50   63.  
 155.55   69.  
 155.60   69.  
 155.65   73.  
 155.70   82.  
 155.75   95.  
 155.80  105.  
 155.85  124.  
 155.90  153.  
 155.95  153.  
 156.00  171.  
 156.05  186.  
 156.10  191.  
 156.15  198.  
 156.20  191.  
 156.25  194.  
 156.30  201.  
 156.35  198.  
 156.40  190.  
 156.45  184.  
 156.50  175.  
 156.55  182.  
 156.60  159.  
 156.65  162.  
 156.70  157.  
 156.75  127.  
 156.80  114.  
 156.85  113.  
 156.90   98.  
 156.95   90.  
 157.00   78.  
 157.05   81.  
 157.10   88.  
 157.15   78.  
 157.20   79.  
 157.25   77.  
 157.30   92.  
 157.35   95.  
 157.40   98.  
 157.45  104.  
 157.50  101.  
 157.55  123.  
 157.60  145.  
 157.65  178.  
 157.70  203.  
 157.75  242.  
 157.80  289.  
 157.85  333.  
 157.90  427.  
 157.95  474.  
 158.00  547.  
 158.05  551.  
 158.10  643.  
 158.15  670.  
 158.20  678.  
 158.25  697.  
 158.30  697.  
 158.35  643.  
 158.40  683.  
 158.45  627.  
 158.50  590.  
 158.55  544.  
 158.60  522.  
 158.65  474.  
 158.70  424.  
 158.75  392.  
 158.80  349.  
 158.85  282.  
 158.90  265.  
 158.95  216.  
 159.00  163.  
 159.05  138.  
 159.10  134.  
 159.15   88.  
 159.20   91.  
 159.25   74.  
 159.30   79.  
 159.35   65.  
 159.40   65.  
 159.45   71.  
 159.50   55.  
 159.55   62.  
 159.60   51.  
 159.65   61.  
 159.70   53.  
 159.75   66.  
 159.80   72.  
 159.85   59.  
 159.90   73.  
 159.95   74.  

